;RAW4.00
[RawHeader]
Date=07/08/2025
EstimatedTotalTime=545.6
FurtherDQLReading=0
HardwareIndicator=65519
MeasuredTotalTime=5.48473
MeasurementFlag=1
NumberOfMeasuredRanges=1
NumberOfRanges=1
Time=17:18:01

[VarInfo]
Type=USER
Flags=0
Value=Lab Manager

[VarInfo]
Type=SAMPLEID
Flags=0
Value=Commander Sample ID

[VarInfo]
Type=COMMENT
Flags=0
Value=

[VarInfo]
Type=UTF
Flags=0
Value=

[VarInfo]
Type=CREATOR
Flags=0
Value=V5Converter

[VarInfo]
Type=CREATOR_VERSION
Flags=0
Value=4.4.16.0

[HardwareConfiguration]
AbsorptionFactor=9999
ActivateAbsorber=0
Alpha1=1.5406
Alpha2=1.54439
AlphaAverage=1.54184
AlphaRatio=0.5
Analyzer=0
Anode=Cu
AntiScatteringSlit=9999
BeamOpticsFlags=0
Beta=1.39222
BetaRelativeIntensity=0
DeactivateAbsorber=0
DetectorSlit=9999
DivergenceSlit=9999
GoniometerControl=0
GoniometerDiameter=282
GoniometerModel=256
GoniometerStage=7
Monochromator=0
NearSampleSlit=9999
PrimarySollerSlit=9999
SampleChanger=0
SecondSollerSlit=9999
SynchronousAxis=0
ThinFilmAttachment=9999
WaveUnit=A

[RangeHeader]
ActuallyUsedLambda=1.54184
AdditionalDetectorMask=257
DataRecordLength=4
DelayTime=0
DisplayPlaneNumber=0
EstimatedScanTime=546
ExtraParametersMask=0
GeneratorCurrent=10
GeneratorVoltage=30
Increment=0.0201685
Increment3=0
NumberOfCompletedData=2480
NumberOfCounts=1
NumberOfDetectors=0
NumberOfDrives=3
NumberOfEncoderDrives=0
NumberOfMeasuredData=2480
NumberOfVaryingParameters=0
RangeStartTime=0
RotationSpeed=0
ScanMode=1
ScanType=Locked Coupled
SimulatedMeasConditions=0
SlitChangerIn=0
SmootingWidth=0
Start=30.0015
Steps=2480
SynchronousRotation=0
Time=33

[VarInfo]
Type=PSD_DISCRIM
Flags=0
Value=0.11;0.5

[VarInfo]
Type=OPTICS_V5
Flags=0
Value=H4sIAAAAAAAEAO1d63KjOhJ+Fda/zqmtBIPtXKaITzm2J+OaOHbFTnKmtrZcBORYZzC4AOey//d99hl2X2x1QViIS8C3JBN+TCaodWm6+2vUUkfS/nieW9IjcD3o2GcV5bBakYBtOCa0H84qS396oBxV/mhqF44NnTnwgdt25gvHBrbf0X1dQq1t78uzB88qM99ffJHlp6enw6faoeM+yGq1qsh/9i9HxgzM9QNoe75uG6AStjJfb1WRbqEH7y1wpc/BWWXFR0joAM9w4cInL/Bj4UHLsSW+3oXrLBc9NBZ6t3Pgojcb3P8FDH+o+7OzitwBj9AAMt+CrxUfl1Lblu55QRehTORzoM8XqLDt2L4ObeBy/coBc6yHluEvdYtxoR6o1ePT02O5h8TkLue4tzhrTW2EZGjqqBswQr3oFvyXjl+9OdUtD2hyGln7c259hcAyrwHqHhq4EDFpA/KbJ8lNjfKD1ToCFipvdm00JDA1OUbR6Btwou9Ab2HpL824AjQ5tXK8m+bF4OrHhPzodEft64TGrBVWDOsoPhpP1bBWhrxWvISy1r0hIUP+4r8skMLHrm78xG8sGODQhXPdfSHkZBMMakgD9GxISBvSeHkPOIFIQeOidilHx44baRI9r5mSRmyEDSxUYBJZ3blu/xy4JnCvAfYzAL0wsdX3b8s5NVnMwIfj6+8T9KPV/l7IxHm5Jhp5z0OvBh9BE+kGCS98DAk920dCZMIVSikeHA9SJulgmhwp1bAq2ZMXfZT4B2LSAxc+QFu3ogSlwl6OWi7Ssb/0moPwnSLFGmsYPPedJdIj0qJQrgWE0MJ5JCOdEXICmjFtjmnJUA7J0tRxpRHQLUBtYA3AytxYcejGiMm4JZa46kmmLG0LrhEWBa3xcus++8A2MZDfDYZpCWdMkQKtj5nwHfcltGVFk+OFGseMJxH2qHoYWND7cnJosmJN5ku1uCnh1+H65qyTKx3Y545jAR1NEG5s6BPpdiDSG56bXcI59IlYwiKvWdVk7knrgKm+tPxb3VoCboigVyQ96CPXTshnFewlKri/oQta5l9LD8GnYEuZYx67mbHTJoqe6ZblPK0cjVCOarZnwPgJzFUVVqC1ESPOHKsWvx33pNH5Zl7erhEyxkg2xVq1lr7TdoHug6HrLIDrvzAWEyiR9/eIRfdMhLKr5fweuE21rslCEdaQRS08UPF//xMyUSUc9B0TNG8Quqbos4xMnTwz90Y+PzEHluy7tuWt5HgP/ND5vNXOHBXjLvaN2aNbYuh5A79Evm3IJvErCL6JJ23LP418rD3OPSHRTOHDEjnla/gw85sIdabECnU0BoKwUKWYS+vrz5fAfvBnTbXRwKJhj2nOjrJISkNktZevObqMVm/q5DL4SnFwGS02cm5pFninPwKqkpa1mOmKYIUieVuWOJh2nCVqyWzxf//ehzWm2Nxw9uJBQ7dIeQJnTA/KYaNePXrNFtfo7ca2MPfItOjcf/WMZelYS+paugfVBtErK9H60Ibz5bx5oBwenx4fndaUWv3kSK0pjePu32vVE4S4oAZGIvklvWZQ4W0Rs4b0UpC0Rk/7QJiajTD10yOsXjvdJsRYdyXGNhLfFkDGuto1yh6Bqz+IoV6M/ulxppzUt4kz1l2Js43EtwWcsa52jLNz4OupIMPET46w2qmqqttD2Kq7EmEbiW9jhK262jHCrvGaRirECHVXGHuvCFutth02NsJWrKMSVWsKbh08xTrZCZK+OsbSG7gQ2D5ZHRSgJJK3tspG1g4H057tH9XfH6CibEVXr/OjKbkXhfRCBYDfqOeDOWLs0nmABl3VvJn0rm5bl73OpP2tN9TkFYkJfAye/WbPftQtiMQzg4uVjCJaIvW07+CFjI1lEf6uyTEWsnm67F2lsnIJbSARW0kbWtlk6OEgY+yhA20/e3B1k8GZLoaD0auqCHeKD6S58wgk35HmwJjpNrYKCTmTxd/SeKxl8/ienF2WXefzdFk9bOTm6N5Lz546UqiqhAVciZbr3FOQY3BWIVUkVBrdJr+ZtC6H31rRcrGRhEeyyEjkXXKxo0bYURPZUVPYUbPYUQuzEywL8PxEyoQBQloib5PW7UUWe0HrokySmCrg8D78PeybkkWGzrvjVjIvuH4+FiIbUQEDqBXeyxN46LJSkY3uZbffvRqnSMV2TCAFbaXVSDlkQmfBvNq4EkHsASVZZdetcW+QpTTSOp+8YlOLgL9pYnk4ToQicvl10J4MrpMZJONJkeZyfMe6Ed+xvgA2skTfcYU8TFacvPmcsQFLZ8dr7r82tXQiP3O7dSw/voYXlO4q5vl5u6WEjcypLxqFfRNqVSHyCL4FKaFHctihVBMCjFp1f7FErbF+MBEXRsEvZLo55TW19tJ1sT+LmlpQuitTm7f2YWpolHD6sQ1TaySFsh/E0uKy2LulDZ0nkgHOmxQp25WV3aUEnW+xcHMnRJr5lluqhymm+EkWW+4491hde7Ul3ssWbV9+7YtfJA0UTQyNGXBfyVbbPA8ud74bklUw60j9YgWfilQ/I4dzraYmBmuZ2QhiKJW9qxqLdLI3h6IxR/YytzAXT1vD42MIIXVJnC4nR8cylyaJ7OZRhxZeJcCPHu2eWH2ZQFkmUJYJlGUCZZlA+fE2xcsEyvezJV4mUP6aCCsTKN8TxsoEyl8VZ2UC5XvCWZlA+ashrEygfE8IKxMoywTKMoGyTKAsEyjLBMoygbJMoCwTKMsEyjKBskygLBMoywTKMoGyTKAsEyjLBMoygbJMoHzr+KNMoCwTKD9tAiXLkUS/iumT7KzT+Cmg4tm7GScqd+cL/4UkG4arGcVOT+72h4PRhP4scnoyGTg0xcTzk2U+BzLzcGMl7XBjde+HGw8WbefceR5MR45lATfhiGNKyDjkmKsg/WbotmTQQ8ElNJZEifQE7N/XgX9k+LhXSSBnuYaE6hunwkb7FPSZfOxxRGTIPPKL8PePe2KymphYK0bAR+scevtxXAin6Q2diJrmRGpv50S+wmdgEkNlcw/RmVjQz3IliCz1U2CAaRv4kdXICV5EJGb6ELHy5h6E61FQZYr/YA2o98gntQ/sOmq5XMfxeudlE7OmVzSsTJpYMhZe0hcRy1SR/jGf/zPDjH/DR/7fA2QfErQ9hAVgol98R9I5hWWaMq5mhBds4KeJUp0oaQYcIb5mwIVtN52ZmPP5qH/5US30lx930PRnYm4HLtvZktP8/WxBxzgL44DNsuvjPeVdZqh+7nWGuODWWWeI97KTtI5vABumgB1a+LnBszXslNBZz+i3gpzt3wSirjOzGenzhQXuZgBYY/QC/KUgIkkjH65UJ0ChmfamMj+F+lCxGJtFbxiJ1dIisfpGkRjhMR6HvT9h3thLD5hkeHHgLInKwm1g17oJl16CldWVYB+fXrg3mE494KdZfesZevz3Iay2B1ceYybnbh1ywVU1LSlVPTypn6qNRkNN8LvHjcOTRv24dqQqvK8VhNAM7mETbitc+w7DEUCRgJl9i2FYh7v9roNCXwNnMmzhLkORh4SYKLFGsfsMwz42ifVFRj70nYaF9FrM/4zwzYaj4jcbRuW787sNw+F2cbvhyRss3uHlOks3wMyxzMQtgMsX+xm8pBxzcfnj6s/ujy654bCjSsOZ7olX4OYEsRyOEwezQMpa3mDWKOO8X3k4Wj2jProvYAvX6KYzLmrzl7v28CTPUlxNiU9Yi8wL0ecUu0XdWrmWfniNJk2pxn6HJHazGl4xZ9PpjyfkXwFHw4ba6R6gstmscZebgP09bgIKCIswkLYN2N/zNmAmj6JSs3YC+59rJ1Cp53Ii1c+wFVhGSkUjpbRAqXF4dHrSUJRqPWmBqqEcHldP68dqfQeB0sontAHGieA9hcKI4+SmzLSadMAw70kjnLfkkW8dVkPLMIDnOS4E3hoRE+Mi7j2jlLwRUvyl1/ekrIcPHRqtqcpiLudicNWekB9FHA7lZ+eh0Ri4qHQnkdHp3mdFwxkkShPAfO0EGXBRYgTUqKlErdE1Wb0CGJXZGHSdNqGDKCsJ1TJnP6vqMuJUZpxuDuAUxgVFpsREEgUYMFu+rxszPNBZ5WDPRwluc5pzmitr4SQ+y+l5TBQhKMMCjfMcZLfIWj48ALPjYkzSv8ZE3eHvWs9sIu2S3oNHTCEVRwtgwGnwt6KsUpyC4BLvvcgEK46DYs5u+K03mpAfRZxdFKHbnGBVi0yvQisOP5lEYfRDEPwf22IqXU7pckqXI7qcECvsd+8VLsZPznhGTjB6jZVIzZz8ZA+dc9yig6ZEJvFifFQxXo8YAd9H0PIkfi6GHAXNPKxILbzB7vVR6AbplI5NtLGOuVT/5i2e1Rn4EFu+VFtBkewhB6uqmiyUa3yqI/WAkWUTj/6JxSqYYK6D6Pv/u9RXv2COAAA=

[PSD]
ActualTwoTheta=9999
FirstUsedChannel=0
FixedPSD=0
PSDOpening=4.99171
PSDType=5

[Drive]
DriveFlags=1
DriveName=2Theta
DriveNumber=2
DriveOffset=0
OffsetIndex=0
OscillationAmplitude=0
OscillationSpeed=0
StartPosition=30.0015

[Drive]
DriveFlags=1
DriveName=Theta
DriveNumber=1
DriveOffset=0
OffsetIndex=0
OscillationAmplitude=0
OscillationSpeed=0
StartPosition=15.0007

[Drive]
DriveFlags=1
DriveName=Phi
DriveNumber=3
DriveOffset=0
OffsetIndex=0
OscillationAmplitude=0
OscillationSpeed=0
StartPosition=0

[Data]
     Angle,       PSD,
   30.0015,       658,
   30.0217,       704,
   30.0418,       744,
    30.062,       766,
   30.0822,       704,
   30.1023,       656,
   30.1225,       758,
   30.1427,       750,
   30.1628,       696,
    30.183,       699,
   30.2032,       659,
   30.2233,       731,
   30.2435,       685,
   30.2637,       670,
   30.2838,       708,
    30.304,       701,
   30.3242,       682,
   30.3444,       704,
   30.3645,       697,
   30.3847,       676,
   30.4049,       687,
    30.425,       716,
   30.4452,       780,
   30.4654,       678,
   30.4855,       688,
   30.5057,       715,
   30.5259,       712,
    30.546,       713,
   30.5662,       662,
   30.5864,       680,
   30.6065,       675,
   30.6267,       713,
   30.6469,       671,
   30.6671,       704,
   30.6872,       730,
   30.7074,       685,
   30.7276,       723,
   30.7477,       698,
   30.7679,       704,
   30.7881,       646,
   30.8082,       737,
   30.8284,       686,
   30.8486,       698,
   30.8687,       696,
   30.8889,       646,
   30.9091,       698,
   30.9292,       710,
   30.9494,       667,
   30.9696,       700,
   30.9897,       725,
   31.0099,       732,
   31.0301,       681,
   31.0503,       695,
   31.0704,       726,
   31.0906,       694,
   31.1108,       707,
   31.1309,       702,
   31.1511,       718,
   31.1713,       710,
   31.1914,       711,
   31.2116,       666,
   31.2318,       658,
   31.2519,       702,
   31.2721,       718,
   31.2923,       701,
   31.3124,       715,
   31.3326,       672,
   31.3528,       704,
   31.3729,       720,
   31.3931,       709,
   31.4133,       733,
   31.4335,       691,
   31.4536,       735,
   31.4738,       733,
    31.494,       720,
   31.5141,       732,
   31.5343,       677,
   31.5545,       694,
   31.5746,       669,
   31.5948,       676,
    31.615,       690,
   31.6351,       676,
   31.6553,       676,
   31.6755,       719,
   31.6956,       701,
   31.7158,       671,
    31.736,       680,
   31.7562,       689,
   31.7763,       714,
   31.7965,       678,
   31.8167,       667,
   31.8368,       686,
    31.857,       729,
   31.8772,       665,
   31.8973,       710,
   31.9175,       672,
   31.9377,       707,
   31.9578,       690,
    31.978,       684,
   31.9982,       682,
   32.0183,       691,
   32.0385,       673,
   32.0587,       694,
   32.0788,       678,
    32.099,       670,
   32.1192,       689,
   32.1394,       695,
   32.1595,       675,
   32.1797,       728,
   32.1999,       639,
     32.22,       685,
   32.2402,       658,
   32.2604,       674,
   32.2805,       733,
   32.3007,       669,
   32.3209,       773,
    32.341,       700,
   32.3612,       717,
   32.3814,       657,
   32.4015,       685,
   32.4217,       713,
   32.4419,       651,
    32.462,       685,
   32.4822,       726,
   32.5024,       701,
   32.5226,       696,
   32.5427,       743,
   32.5629,       656,
   32.5831,       709,
   32.6032,       651,
   32.6234,       692,
   32.6436,       710,
   32.6637,       703,
   32.6839,       707,
   32.7041,       721,
   32.7242,       695,
   32.7444,       628,
   32.7646,       707,
   32.7847,       657,
   32.8049,       686,
   32.8251,       684,
   32.8453,       724,
   32.8654,       674,
   32.8856,       680,
   32.9058,       719,
   32.9259,       673,
   32.9461,       715,
   32.9663,       680,
   32.9864,       648,
   33.0066,       653,
   33.0268,       711,
   33.0469,       692,
   33.0671,       694,
   33.0873,       685,
   33.1074,       751,
   33.1276,       702,
   33.1478,       653,
   33.1679,       707,
   33.1881,       696,
   33.2083,       715,
   33.2285,       679,
   33.2486,       676,
   33.2688,       676,
    33.289,       712,
   33.3091,       722,
   33.3293,       675,
   33.3495,       645,
   33.3696,       724,
   33.3898,       678,
     33.41,       665,
   33.4301,       703,
   33.4503,       702,
   33.4705,       682,
   33.4906,       679,
   33.5108,       703,
    33.531,       654,
   33.5511,       698,
   33.5713,       742,
   33.5915,       658,
   33.6117,       697,
   33.6318,       743,
    33.652,       673,
   33.6722,       663,
   33.6923,       710,
   33.7125,       682,
   33.7327,       666,
   33.7528,       671,
    33.773,       657,
   33.7932,       673,
   33.8133,       698,
   33.8335,       673,
   33.8537,       685,
   33.8738,       751,
    33.894,       694,
   33.9142,       642,
   33.9344,       699,
   33.9545,       685,
   33.9747,       706,
   33.9949,       677,
    34.015,       673,
   34.0352,       689,
   34.0554,       678,
   34.0755,       658,
   34.0957,       653,
   34.1159,       649,
    34.136,       673,
   34.1562,       660,
   34.1764,       648,
   34.1965,       669,
   34.2167,       639,
   34.2369,       673,
    34.257,       678,
   34.2772,       682,
   34.2974,       704,
   34.3176,       658,
   34.3377,       694,
   34.3579,       740,
   34.3781,       697,
   34.3982,       685,
   34.4184,       668,
   34.4386,       683,
   34.4587,       650,
   34.4789,       672,
   34.4991,       611,
   34.5192,       661,
   34.5394,       660,
   34.5596,       668,
   34.5797,       712,
   34.5999,       692,
   34.6201,       723,
   34.6402,       721,
   34.6604,       677,
   34.6806,       616,
   34.7008,       695,
   34.7209,       681,
   34.7411,       655,
   34.7613,       690,
   34.7814,       669,
   34.8016,       669,
   34.8218,       696,
   34.8419,       674,
   34.8621,       643,
   34.8823,       697,
   34.9024,       653,
   34.9226,       641,
   34.9428,       680,
   34.9629,       628,
   34.9831,       664,
   35.0033,       685,
   35.0235,       663,
   35.0436,       687,
   35.0638,       673,
    35.084,       634,
   35.1041,       695,
   35.1243,       623,
   35.1445,       636,
   35.1646,       674,
   35.1848,       662,
    35.205,       662,
   35.2251,       684,
   35.2453,       657,
   35.2655,       637,
   35.2856,       711,
   35.3058,       697,
    35.326,       669,
   35.3461,       673,
   35.3663,       702,
   35.3865,       688,
   35.4067,       695,
   35.4268,       678,
    35.447,       668,
   35.4672,       693,
   35.4873,       661,
   35.5075,       633,
   35.5277,       645,
   35.5478,       704,
    35.568,       688,
   35.5882,       643,
   35.6083,       688,
   35.6285,       605,
   35.6487,       691,
   35.6688,       680,
    35.689,       651,
   35.7092,       649,
   35.7294,       659,
   35.7495,       651,
   35.7697,       686,
   35.7899,       697,
     35.81,       696,
   35.8302,       692,
   35.8504,       705,
   35.8705,       663,
   35.8907,       714,
   35.9109,       664,
    35.931,       657,
   35.9512,       725,
   35.9714,       696,
   35.9915,       682,
   36.0117,       676,
   36.0319,       646,
    36.052,       638,
   36.0722,       717,
   36.0924,       743,
   36.1126,       653,
   36.1327,       667,
   36.1529,       639,
   36.1731,       610,
   36.1932,       647,
   36.2134,       722,
   36.2336,       681,
   36.2537,       649,
   36.2739,       702,
   36.2941,       700,
   36.3142,       727,
   36.3344,       689,
   36.3546,       690,
   36.3747,       700,
   36.3949,       669,
   36.4151,       707,
   36.4352,       696,
   36.4554,       705,
   36.4756,       709,
   36.4958,       707,
   36.5159,       664,
   36.5361,       689,
   36.5563,       698,
   36.5764,       675,
   36.5966,       631,
   36.6168,       668,
   36.6369,       697,
   36.6571,       635,
   36.6773,       669,
   36.6974,       635,
   36.7176,       654,
   36.7378,       672,
   36.7579,       692,
   36.7781,       673,
   36.7983,       702,
   36.8185,       680,
   36.8386,       686,
   36.8588,       701,
    36.879,       667,
   36.8991,       690,
   36.9193,       682,
   36.9395,       657,
   36.9596,       640,
   36.9798,       698,
        37,       712,
   37.0201,       641,
   37.0403,       634,
   37.0605,       634,
   37.0806,       644,
   37.1008,       690,
    37.121,       696,
   37.1411,       662,
   37.1613,       656,
   37.1815,       651,
   37.2017,       694,
   37.2218,       654,
    37.242,       681,
   37.2622,       682,
   37.2823,       685,
   37.3025,       645,
   37.3227,       674,
   37.3428,       658,
    37.363,       678,
   37.3832,       703,
   37.4033,       666,
   37.4235,       711,
   37.4437,       683,
   37.4638,       693,
    37.484,       653,
   37.5042,       678,
   37.5243,       682,
   37.5445,       658,
   37.5647,       688,
   37.5849,       625,
    37.605,       707,
   37.6252,       602,
   37.6454,       687,
   37.6655,       694,
   37.6857,       644,
   37.7059,       736,
    37.726,       696,
   37.7462,       693,
   37.7664,       670,
   37.7865,       727,
   37.8067,       694,
   37.8269,       693,
    37.847,       691,
   37.8672,       664,
   37.8874,       724,
   37.9076,       620,
   37.9277,       629,
   37.9479,       706,
   37.9681,       672,
   37.9882,       697,
   38.0084,       649,
   38.0286,       651,
   38.0487,       590,
   38.0689,       662,
   38.0891,       661,
   38.1092,       669,
   38.1294,       736,
   38.1496,       669,
   38.1697,       651,
   38.1899,       703,
   38.2101,       624,
   38.2302,       697,
   38.2504,       646,
   38.2706,       683,
   38.2908,       688,
   38.3109,       722,
   38.3311,       720,
   38.3513,       708,
   38.3714,       684,
   38.3916,       716,
   38.4118,       694,
   38.4319,       684,
   38.4521,       728,
   38.4723,       750,
   38.4924,       842,
   38.5126,       888,
   38.5328,       912,
   38.5529,       812,
   38.5731,       750,
   38.5933,       732,
   38.6134,       707,
   38.6336,       688,
   38.6538,       664,
    38.674,       726,
   38.6941,       659,
   38.7143,       679,
   38.7345,       693,
   38.7546,       709,
   38.7748,       660,
    38.795,       712,
   38.8151,       655,
   38.8353,       730,
   38.8555,       679,
   38.8756,       651,
   38.8958,       724,
    38.916,       671,
   38.9361,       682,
   38.9563,       693,
   38.9765,       720,
   38.9967,       684,
   39.0168,       756,
    39.037,       711,
   39.0572,       688,
   39.0773,       658,
   39.0975,       691,
   39.1177,       659,
   39.1378,       665,
    39.158,       683,
   39.1782,       711,
   39.1983,       644,
   39.2185,       638,
   39.2387,       676,
   39.2588,       721,
    39.279,       674,
   39.2992,       689,
   39.3193,       679,
   39.3395,       695,
   39.3597,       678,
   39.3799,       701,
      39.4,       705,
   39.4202,       683,
   39.4404,       674,
   39.4605,       697,
   39.4807,       696,
   39.5009,       713,
    39.521,       631,
   39.5412,       651,
   39.5614,       658,
   39.5815,       701,
   39.6017,       685,
   39.6219,       693,
    39.642,       724,
   39.6622,       688,
   39.6824,       730,
   39.7025,       720,
   39.7227,       696,
   39.7429,       659,
   39.7631,       683,
   39.7832,       659,
   39.8034,       664,
   39.8236,       702,
   39.8437,       662,
   39.8639,       656,
   39.8841,       706,
   39.9042,       724,
   39.9244,       712,
   39.9446,       666,
   39.9647,       722,
   39.9849,       672,
   40.0051,       683,
   40.0252,       707,
   40.0454,       629,
   40.0656,       692,
   40.0858,       728,
   40.1059,       682,
   40.1261,       638,
   40.1463,       699,
   40.1664,       744,
   40.1866,       680,
   40.2068,       706,
   40.2269,       670,
   40.2471,       661,
   40.2673,       693,
   40.2874,       665,
   40.3076,       662,
   40.3278,       728,
   40.3479,       648,
   40.3681,       684,
   40.3883,       680,
   40.4084,       730,
   40.4286,       678,
   40.4488,       701,
    40.469,       696,
   40.4891,       666,
   40.5093,       717,
   40.5295,       682,
   40.5496,       697,
   40.5698,       691,
     40.59,       707,
   40.6101,       683,
   40.6303,       663,
   40.6505,       682,
   40.6706,       729,
   40.6908,       747,
    40.711,       664,
   40.7311,       728,
   40.7513,       669,
   40.7715,       684,
   40.7917,       709,
   40.8118,       662,
    40.832,       714,
   40.8522,       712,
   40.8723,       690,
   40.8925,       699,
   40.9127,       690,
   40.9328,       699,
    40.953,       696,
   40.9732,       697,
   40.9933,       665,
   41.0135,       653,
   41.0337,       754,
   41.0538,       689,
    41.074,       658,
   41.0942,       682,
   41.1143,       681,
   41.1345,       693,
   41.1547,       675,
   41.1749,       698,
    41.195,       667,
   41.2152,       721,
   41.2354,       721,
   41.2555,       723,
   41.2757,       741,
   41.2959,       765,
    41.316,       738,
   41.3362,       779,
   41.3564,       824,
   41.3765,       816,
   41.3967,       837,
   41.4169,       838,
    41.437,       864,
   41.4572,       916,
   41.4774,       923,
   41.4975,       862,
   41.5177,       881,
   41.5379,       866,
   41.5581,       848,
   41.5782,       888,
   41.5984,       856,
   41.6186,       926,
   41.6387,       842,
   41.6589,       840,
   41.6791,       830,
   41.6992,       825,
   41.7194,       854,
   41.7396,       826,
   41.7597,       863,
   41.7799,       862,
   41.8001,       844,
   41.8202,       877,
   41.8404,       815,
   41.8606,       876,
   41.8808,       839,
   41.9009,       870,
   41.9211,       863,
   41.9413,       897,
   41.9614,       870,
   41.9816,       844,
   42.0018,       880,
   42.0219,       949,
   42.0421,       916,
   42.0623,       890,
   42.0824,       880,
   42.1026,       839,
   42.1228,       929,
   42.1429,       864,
   42.1631,       900,
   42.1833,       956,
   42.2034,       891,
   42.2236,       907,
   42.2438,       913,
    42.264,       904,
   42.2841,       935,
   42.3043,       971,
   42.3245,       943,
   42.3446,       970,
   42.3648,      1040,
    42.385,      1081,
   42.4051,      1069,
   42.4253,      1203,
   42.4455,      1182,
   42.4656,      1295,
   42.4858,      1390,
    42.506,      1527,
   42.5261,      1597,
   42.5463,      1582,
   42.5665,      1643,
   42.5866,      1730,
   42.6068,      1859,
    42.627,      2002,
   42.6472,      2223,
   42.6673,      2422,
   42.6875,      2680,
   42.7077,      2827,
   42.7278,      2994,
    42.748,      3317,
   42.7682,      4222,
   42.7883,      5831,
   42.8085,     10192,
   42.8287,     20269,
   42.8488,     40034,
    42.869,     66299,
   42.8892,     74846,
   42.9093,     50791,
   42.9295,     26810,
   42.9497,     21570,
   42.9699,     29133,
     42.99,     38818,
   43.0102,     35276,
   43.0304,     20591,
   43.0505,      9665,
   43.0707,      5164,
   43.0909,      3827,
    43.111,      3048,
   43.1312,      2621,
   43.1514,      2378,
   43.1715,      2105,
   43.1917,      1928,
   43.2119,      1787,
    43.232,      1621,
   43.2522,      1519,
   43.2724,      1383,
   43.2925,      1336,
   43.3127,      1351,
   43.3329,      1202,
   43.3531,      1081,
   43.3732,      1145,
   43.3934,      1072,
   43.4136,      1006,
   43.4337,       989,
   43.4539,       975,
   43.4741,       972,
   43.4942,       913,
   43.5144,       948,
   43.5346,       952,
   43.5547,       910,
   43.5749,       904,
   43.5951,       926,
   43.6152,       893,
   43.6354,       903,
   43.6556,       962,
   43.6757,       939,
   43.6959,       878,
   43.7161,       880,
   43.7363,       872,
   43.7564,       880,
   43.7766,       831,
   43.7968,       841,
   43.8169,       845,
   43.8371,       851,
   43.8573,       854,
   43.8774,       852,
   43.8976,       823,
   43.9178,       858,
   43.9379,       830,
   43.9581,       829,
   43.9783,       853,
   43.9984,       797,
   44.0186,       801,
   44.0388,       760,
    44.059,       846,
   44.0791,       808,
   44.0993,       756,
   44.1195,       798,
   44.1396,       776,
   44.1598,       849,
     44.18,       812,
   44.2001,       777,
   44.2203,       784,
   44.2405,       840,
   44.2606,       836,
   44.2808,       767,
    44.301,       746,
   44.3211,       780,
   44.3413,       837,
   44.3615,       804,
   44.3816,       798,
   44.4018,       836,
    44.422,       766,
   44.4422,       770,
   44.4623,       754,
   44.4825,       778,
   44.5027,       764,
   44.5228,       719,
    44.543,       797,
   44.5632,       785,
   44.5833,       813,
   44.6035,       805,
   44.6237,       798,
   44.6438,       800,
    44.664,       759,
   44.6842,       775,
   44.7043,       845,
   44.7245,       744,
   44.7447,       788,
   44.7648,       749,
    44.785,       768,
   44.8052,       840,
   44.8254,       781,
   44.8455,       807,
   44.8657,       870,
   44.8859,       792,
    44.906,       785,
   44.9262,       828,
   44.9464,       784,
   44.9665,       774,
   44.9867,       753,
   45.0069,       726,
    45.027,       765,
   45.0472,       765,
   45.0674,       737,
   45.0875,       809,
   45.1077,       774,
   45.1279,       786,
   45.1481,       770,
   45.1682,       727,
   45.1884,       737,
   45.2086,       756,
   45.2287,       740,
   45.2489,       775,
   45.2691,       747,
   45.2892,       770,
   45.3094,       775,
   45.3296,       752,
   45.3497,       736,
   45.3699,       773,
   45.3901,       780,
   45.4102,       722,
   45.4304,       714,
   45.4506,       723,
   45.4707,       787,
   45.4909,       736,
   45.5111,       713,
   45.5313,       728,
   45.5514,       746,
   45.5716,       711,
   45.5918,       812,
   45.6119,       710,
   45.6321,       716,
   45.6523,       751,
   45.6724,       752,
   45.6926,       688,
   45.7128,       788,
   45.7329,       734,
   45.7531,       793,
   45.7733,       718,
   45.7934,       766,
   45.8136,       720,
   45.8338,       729,
    45.854,       790,
   45.8741,       747,
   45.8943,       753,
   45.9145,       720,
   45.9346,       756,
   45.9548,       759,
    45.975,       698,
   45.9951,       764,
   46.0153,       715,
   46.0355,       716,
   46.0556,       743,
   46.0758,       755,
    46.096,       759,
   46.1161,       735,
   46.1363,       775,
   46.1565,       785,
   46.1766,       744,
   46.1968,       731,
    46.217,       772,
   46.2372,       730,
   46.2573,       754,
   46.2775,       711,
   46.2977,       719,
   46.3178,       747,
    46.338,       756,
   46.3582,       777,
   46.3783,       736,
   46.3985,       732,
   46.4187,       781,
   46.4388,       705,
    46.459,       742,
   46.4792,       708,
   46.4993,       668,
   46.5195,       734,
   46.5397,       732,
   46.5598,       674,
     46.58,       730,
   46.6002,       764,
   46.6204,       709,
   46.6405,       742,
   46.6607,       749,
   46.6809,       764,
    46.701,       722,
   46.7212,       695,
   46.7414,       750,
   46.7615,       670,
   46.7817,       708,
   46.8019,       661,
    46.822,       728,
   46.8422,       744,
   46.8624,       721,
   46.8825,       748,
   46.9027,       703,
   46.9229,       724,
   46.9431,       695,
   46.9632,       723,
   46.9834,       712,
   47.0036,       766,
   47.0237,       744,
   47.0439,       706,
   47.0641,       727,
   47.0842,       693,
   47.1044,       737,
   47.1246,       687,
   47.1447,       746,
   47.1649,       711,
   47.1851,       702,
   47.2052,       738,
   47.2254,       709,
   47.2456,       716,
   47.2657,       690,
   47.2859,       719,
   47.3061,       675,
   47.3263,       730,
   47.3464,       705,
   47.3666,       713,
   47.3868,       756,
   47.4069,       710,
   47.4271,       734,
   47.4473,       727,
   47.4674,       678,
   47.4876,       734,
   47.5078,       710,
   47.5279,       728,
   47.5481,       697,
   47.5683,       684,
   47.5884,       761,
   47.6086,       654,
   47.6288,       717,
   47.6489,       742,
   47.6691,       679,
   47.6893,       745,
   47.7095,       716,
   47.7296,       731,
   47.7498,       711,
     47.77,       675,
   47.7901,       713,
   47.8103,       770,
   47.8305,       690,
   47.8506,       651,
   47.8708,       717,
    47.891,       734,
   47.9111,       677,
   47.9313,       747,
   47.9515,       689,
   47.9716,       685,
   47.9918,       761,
    48.012,       737,
   48.0322,       679,
   48.0523,       702,
   48.0725,       699,
   48.0927,       722,
   48.1128,       714,
    48.133,       707,
   48.1532,       714,
   48.1733,       720,
   48.1935,       667,
   48.2137,       729,
   48.2338,       727,
    48.254,       673,
   48.2742,       723,
   48.2943,       778,
   48.3145,       753,
   48.3347,       725,
   48.3548,       751,
    48.375,       703,
   48.3952,       700,
   48.4154,       792,
   48.4355,       715,
   48.4557,       727,
   48.4759,       728,
    48.496,       721,
   48.5162,       697,
   48.5364,       739,
   48.5565,       764,
   48.5767,       743,
   48.5969,       738,
    48.617,       739,
   48.6372,       769,
   48.6574,       705,
   48.6775,       725,
   48.6977,       767,
   48.7179,       774,
    48.738,       764,
   48.7582,       760,
   48.7784,       758,
   48.7986,       727,
   48.8187,       739,
   48.8389,       799,
   48.8591,       758,
   48.8792,       678,
   48.8994,       757,
   48.9196,       757,
   48.9397,       726,
   48.9599,       723,
   48.9801,       716,
   49.0002,       734,
   49.0204,       732,
   49.0406,       681,
   49.0607,       764,
   49.0809,       738,
   49.1011,       753,
   49.1213,       720,
   49.1414,       759,
   49.1616,       759,
   49.1818,       710,
   49.2019,       729,
   49.2221,       755,
   49.2423,       750,
   49.2624,       751,
   49.2826,       753,
   49.3028,       695,
   49.3229,       780,
   49.3431,       752,
   49.3633,       781,
   49.3834,       768,
   49.4036,       744,
   49.4238,       766,
   49.4439,       792,
   49.4641,       743,
   49.4843,       796,
   49.5045,       782,
   49.5246,       814,
   49.5448,       824,
    49.565,       835,
   49.5851,       829,
   49.6053,       907,
   49.6255,       873,
   49.6456,       905,
   49.6658,       920,
    49.686,       975,
   49.7061,       964,
   49.7263,      1024,
   49.7465,      1102,
   49.7666,      1088,
   49.7868,      1137,
    49.807,      1191,
   49.8271,      1234,
   49.8473,      1385,
   49.8675,      1425,
   49.8877,      1631,
   49.9078,      1916,
    49.928,      2367,
   49.9482,      3241,
   49.9683,      5105,
   49.9885,      8459,
   50.0087,     12019,
   50.0288,     13367,
    50.049,     11290,
   50.0692,      7616,
   50.0893,      5492,
   50.1095,      5088,
   50.1297,      6149,
   50.1498,      7447,
     50.17,      7489,
   50.1902,      5522,
   50.2104,      3577,
   50.2305,      2425,
   50.2507,      1915,
   50.2709,      1559,
    50.291,      1380,
   50.3112,      1240,
   50.3314,      1163,
   50.3515,      1065,
   50.3717,      1031,
   50.3919,       996,
    50.412,       899,
   50.4322,       899,
   50.4524,       897,
   50.4725,       815,
   50.4927,       886,
   50.5129,       825,
    50.533,       786,
   50.5532,       764,
   50.5734,       788,
   50.5936,       790,
   50.6137,       724,
   50.6339,       754,
   50.6541,       815,
   50.6742,       798,
   50.6944,       732,
   50.7146,       730,
   50.7347,       743,
   50.7549,       717,
   50.7751,       740,
   50.7952,       723,
   50.8154,       759,
   50.8356,       710,
   50.8557,       702,
   50.8759,       654,
   50.8961,       697,
   50.9163,       662,
   50.9364,       722,
   50.9566,       718,
   50.9768,       729,
   50.9969,       740,
   51.0171,       680,
   51.0373,       728,
   51.0574,       753,
   51.0776,       725,
   51.0978,       706,
   51.1179,       697,
   51.1381,       718,
   51.1583,       713,
   51.1784,       724,
   51.1986,       702,
   51.2188,       683,
   51.2389,       660,
   51.2591,       727,
   51.2793,       717,
   51.2995,       698,
   51.3196,       680,
   51.3398,       694,
     51.36,       713,
   51.3801,       693,
   51.4003,       692,
   51.4205,       742,
   51.4406,       669,
   51.4608,       751,
    51.481,       708,
   51.5011,       714,
   51.5213,       679,
   51.5415,       657,
   51.5616,       719,
   51.5818,       635,
    51.602,       693,
   51.6221,       696,
   51.6423,       651,
   51.6625,       690,
   51.6827,       678,
   51.7028,       669,
    51.723,       711,
   51.7432,       649,
   51.7633,       662,
   51.7835,       665,
   51.8037,       664,
   51.8238,       650,
    51.844,       728,
   51.8642,       660,
   51.8843,       693,
   51.9045,       685,
   51.9247,       688,
   51.9448,       657,
    51.965,       659,
   51.9852,       676,
   52.0054,       682,
   52.0255,       684,
   52.0457,       647,
   52.0659,       677,
    52.086,       672,
   52.1062,       693,
   52.1264,       687,
   52.1465,       678,
   52.1667,       727,
   52.1869,       667,
    52.207,       675,
   52.2272,       646,
   52.2474,       686,
   52.2675,       647,
   52.2877,       717,
   52.3079,       713,
    52.328,       698,
   52.3482,       725,
   52.3684,       677,
   52.3886,       682,
   52.4087,       671,
   52.4289,       699,
   52.4491,       628,
   52.4692,       682,
   52.4894,       655,
   52.5096,       708,
   52.5297,       670,
   52.5499,       686,
   52.5701,       643,
   52.5902,       663,
   52.6104,       703,
   52.6306,       693,
   52.6507,       679,
   52.6709,       682,
   52.6911,       623,
   52.7112,       687,
   52.7314,       702,
   52.7516,       655,
   52.7718,       706,
   52.7919,       678,
   52.8121,       676,
   52.8323,       647,
   52.8524,       681,
   52.8726,       684,
   52.8928,       650,
   52.9129,       700,
   52.9331,       685,
   52.9533,       690,
   52.9734,       666,
   52.9936,       662,
   53.0138,       684,
   53.0339,       661,
   53.0541,       662,
   53.0743,       674,
   53.0945,       663,
   53.1146,       659,
   53.1348,       646,
    53.155,       673,
   53.1751,       731,
   53.1953,       651,
   53.2155,       726,
   53.2356,       672,
   53.2558,       659,
    53.276,       662,
   53.2961,       678,
   53.3163,       666,
   53.3365,       680,
   53.3566,       687,
   53.3768,       664,
    53.397,       696,
   53.4171,       637,
   53.4373,       638,
   53.4575,       715,
   53.4777,       651,
   53.4978,       663,
    53.518,       636,
   53.5382,       684,
   53.5583,       664,
   53.5785,       696,
   53.5987,       652,
   53.6188,       678,
    53.639,       649,
   53.6592,       669,
   53.6793,       663,
   53.6995,       676,
   53.7197,       697,
   53.7398,       691,
     53.76,       659,
   53.7802,       675,
   53.8003,       628,
   53.8205,       664,
   53.8407,       618,
   53.8609,       632,
    53.881,       599,
   53.9012,       676,
   53.9214,       637,
   53.9415,       633,
   53.9617,       662,
   53.9819,       677,
    54.002,       632,
   54.0222,       701,
   54.0424,       637,
   54.0625,       628,
   54.0827,       658,
   54.1029,       659,
    54.123,       666,
   54.1432,       640,
   54.1634,       634,
   54.1836,       691,
   54.2037,       664,
   54.2239,       668,
   54.2441,       644,
   54.2642,       652,
   54.2844,       637,
   54.3046,       672,
   54.3247,       679,
   54.3449,       670,
   54.3651,       658,
   54.3852,       631,
   54.4054,       650,
   54.4256,       692,
   54.4457,       660,
   54.4659,       671,
   54.4861,       677,
   54.5062,       670,
   54.5264,       638,
   54.5466,       627,
   54.5668,       674,
   54.5869,       682,
   54.6071,       681,
   54.6273,       627,
   54.6474,       577,
   54.6676,       639,
   54.6878,       681,
   54.7079,       659,
   54.7281,       681,
   54.7483,       651,
   54.7684,       684,
   54.7886,       630,
   54.8088,       651,
   54.8289,       629,
   54.8491,       662,
   54.8693,       668,
   54.8894,       679,
   54.9096,       656,
   54.9298,       651,
     54.95,       645,
   54.9701,       618,
   54.9903,       660,
   55.0105,       741,
   55.0306,       665,
   55.0508,       649,
    55.071,       645,
   55.0911,       653,
   55.1113,       647,
   55.1315,       662,
   55.1516,       600,
   55.1718,       639,
    55.192,       695,
   55.2121,       651,
   55.2323,       658,
   55.2525,       645,
   55.2727,       643,
   55.2928,       648,
    55.313,       661,
   55.3332,       653,
   55.3533,       649,
   55.3735,       638,
   55.3937,       641,
   55.4138,       670,
    55.434,       673,
   55.4542,       678,
   55.4743,       660,
   55.4945,       637,
   55.5147,       628,
   55.5348,       623,
    55.555,       665,
   55.5752,       580,
   55.5953,       674,
   55.6155,       670,
   55.6357,       662,
   55.6559,       649,
    55.676,       628,
   55.6962,       659,
   55.7164,       676,
   55.7365,       641,
   55.7567,       690,
   55.7769,       643,
    55.797,       640,
   55.8172,       648,
   55.8374,       639,
   55.8575,       628,
   55.8777,       670,
   55.8979,       673,
    55.918,       658,
   55.9382,       689,
   55.9584,       652,
   55.9786,       659,
   55.9987,       682,
   56.0189,       596,
   56.0391,       704,
   56.0592,       659,
   56.0794,       651,
   56.0996,       664,
   56.1197,       647,
   56.1399,       616,
   56.1601,       665,
   56.1802,       669,
   56.2004,       664,
   56.2206,       625,
   56.2407,       638,
   56.2609,       649,
   56.2811,       665,
   56.3012,       609,
   56.3214,       632,
   56.3416,       675,
   56.3618,       630,
   56.3819,       612,
   56.4021,       671,
   56.4223,       611,
   56.4424,       618,
   56.4626,       611,
   56.4828,       622,
   56.5029,       631,
   56.5231,       645,
   56.5433,       648,
   56.5634,       645,
   56.5836,       627,
   56.6038,       645,
   56.6239,       634,
   56.6441,       638,
   56.6643,       632,
   56.6844,       665,
   56.7046,       628,
   56.7248,       671,
    56.745,       642,
   56.7651,       672,
   56.7853,       645,
   56.8055,       612,
   56.8256,       667,
   56.8458,       664,
    56.866,       638,
   56.8861,       636,
   56.9063,       632,
   56.9265,       643,
   56.9466,       661,
   56.9668,       602,
    56.987,       599,
   57.0071,       653,
   57.0273,       626,
   57.0475,       612,
   57.0677,       594,
   57.0878,       644,
    57.108,       645,
   57.1282,       644,
   57.1483,       612,
   57.1685,       632,
   57.1887,       654,
   57.2088,       692,
    57.229,       576,
   57.2492,       661,
   57.2693,       628,
   57.2895,       662,
   57.3097,       619,
   57.3298,       642,
     57.35,       632,
   57.3702,       614,
   57.3903,       657,
   57.4105,       631,
   57.4307,       609,
   57.4509,       650,
    57.471,       657,
   57.4912,       622,
   57.5114,       644,
   57.5315,       616,
   57.5517,       628,
   57.5719,       638,
    57.592,       649,
   57.6122,       617,
   57.6324,       659,
   57.6525,       690,
   57.6727,       695,
   57.6929,       646,
    57.713,       649,
   57.7332,       615,
   57.7534,       632,
   57.7735,       637,
   57.7937,       589,
   57.8139,       671,
   57.8341,       636,
   57.8542,       661,
   57.8744,       674,
   57.8946,       614,
   57.9147,       701,
   57.9349,       653,
   57.9551,       614,
   57.9752,       657,
   57.9954,       665,
   58.0156,       616,
   58.0357,       646,
   58.0559,       639,
   58.0761,       657,
   58.0962,       612,
   58.1164,       639,
   58.1366,       629,
   58.1568,       632,
   58.1769,       626,
   58.1971,       614,
   58.2173,       616,
   58.2374,       672,
   58.2576,       665,
   58.2778,       589,
   58.2979,       664,
   58.3181,       646,
   58.3383,       620,
   58.3584,       630,
   58.3786,       649,
   58.3988,       658,
   58.4189,       608,
   58.4391,       610,
   58.4593,       665,
   58.4794,       682,
   58.4996,       613,
   58.5198,       632,
     58.54,       654,
   58.5601,       610,
   58.5803,       637,
   58.6005,       655,
   58.6206,       633,
   58.6408,       659,
    58.661,       655,
   58.6811,       623,
   58.7013,       670,
   58.7215,       644,
   58.7416,       684,
   58.7618,       649,
    58.782,       618,
   58.8021,       636,
   58.8223,       652,
   58.8425,       664,
   58.8626,       613,
   58.8828,       632,
    58.903,       616,
   58.9232,       609,
   58.9433,       674,
   58.9635,       643,
   58.9837,       660,
   59.0038,       647,
    59.024,       631,
   59.0442,       604,
   59.0643,       661,
   59.0845,       652,
   59.1047,       708,
   59.1248,       648,
    59.145,       604,
   59.1652,       581,
   59.1853,       599,
   59.2055,       635,
   59.2257,       614,
   59.2459,       628,
    59.266,       595,
   59.2862,       643,
   59.3064,       642,
   59.3265,       621,
   59.3467,       629,
   59.3669,       611,
    59.387,       648,
   59.4072,       675,
   59.4274,       616,
   59.4475,       577,
   59.4677,       607,
   59.4879,       672,
    59.508,       597,
   59.5282,       621,
   59.5484,       623,
   59.5685,       615,
   59.5887,       643,
   59.6089,       619,
   59.6291,       680,
   59.6492,       659,
   59.6694,       617,
   59.6896,       660,
   59.7097,       634,
   59.7299,       593,
   59.7501,       595,
   59.7702,       617,
   59.7904,       651,
   59.8106,       633,
   59.8307,       625,
   59.8509,       605,
   59.8711,       636,
   59.8912,       585,
   59.9114,       651,
   59.9316,       624,
   59.9517,       615,
   59.9719,       616,
   59.9921,       609,
   60.0123,       609,
   60.0324,       611,
   60.0526,       659,
   60.0728,       640,
   60.0929,       626,
   60.1131,       631,
   60.1333,       670,
   60.1534,       663,
   60.1736,       616,
   60.1938,       611,
   60.2139,       660,
   60.2341,       622,
   60.2543,       597,
   60.2744,       591,
   60.2946,       607,
   60.3148,       656,
    60.335,       661,
   60.3551,       607,
   60.3753,       633,
   60.3955,       645,
   60.4156,       666,
   60.4358,       643,
    60.456,       627,
   60.4761,       643,
   60.4963,       643,
   60.5165,       653,
   60.5366,       620,
   60.5568,       664,
    60.577,       680,
   60.5971,       648,
   60.6173,       659,
   60.6375,       602,
   60.6576,       597,
   60.6778,       635,
    60.698,       552,
   60.7182,       632,
   60.7383,       570,
   60.7585,       658,
   60.7787,       640,
   60.7988,       665,
    60.819,       620,
   60.8392,       587,
   60.8593,       639,
   60.8795,       643,
   60.8997,       612,
   60.9198,       618,
     60.94,       649,
   60.9602,       641,
   60.9803,       662,
   61.0005,       648,
   61.0207,       614,
   61.0409,       605,
    61.061,       621,
   61.0812,       625,
   61.1014,       602,
   61.1215,       615,
   61.1417,       644,
   61.1619,       644,
    61.182,       614,
   61.2022,       617,
   61.2224,       635,
   61.2425,       609,
   61.2627,       617,
   61.2829,       612,
    61.303,       651,
   61.3232,       637,
   61.3434,       619,
   61.3635,       612,
   61.3837,       629,
   61.4039,       591,
   61.4241,       607,
   61.4442,       619,
   61.4644,       638,
   61.4846,       590,
   61.5047,       600,
   61.5249,       572,
   61.5451,       635,
   61.5652,       605,
   61.5854,       637,
   61.6056,       677,
   61.6257,       642,
   61.6459,       637,
   61.6661,       621,
   61.6862,       655,
   61.7064,       609,
   61.7266,       635,
   61.7467,       618,
   61.7669,       651,
   61.7871,       643,
   61.8073,       633,
   61.8274,       635,
   61.8476,       603,
   61.8678,       608,
   61.8879,       643,
   61.9081,       635,
   61.9283,       632,
   61.9484,       642,
   61.9686,       651,
   61.9888,       629,
   62.0089,       626,
   62.0291,       649,
   62.0493,       667,
   62.0694,       638,
   62.0896,       619,
   62.1098,       614,
     62.13,       612,
   62.1501,       641,
   62.1703,       637,
   62.1905,       594,
   62.2106,       604,
   62.2308,       573,
    62.251,       642,
   62.2711,       603,
   62.2913,       604,
   62.3115,       624,
   62.3316,       622,
   62.3518,       648,
    62.372,       621,
   62.3921,       616,
   62.4123,       686,
   62.4325,       655,
   62.4526,       590,
   62.4728,       644,
    62.493,       581,
   62.5132,       631,
   62.5333,       630,
   62.5535,       626,
   62.5737,       671,
   62.5938,       644,
    62.614,       622,
   62.6342,       613,
   62.6543,       649,
   62.6745,       671,
   62.6947,       607,
   62.7148,       652,
    62.735,       609,
   62.7552,       612,
   62.7753,       615,
   62.7955,       643,
   62.8157,       637,
   62.8358,       629,
    62.856,       633,
   62.8762,       689,
   62.8964,       612,
   62.9165,       652,
   62.9367,       654,
   62.9569,       612,
    62.977,       655,
   62.9972,       657,
   63.0174,       611,
   63.0375,       635,
   63.0577,       617,
   63.0779,       598,
    63.098,       625,
   63.1182,       613,
   63.1384,       627,
   63.1585,       621,
   63.1787,       623,
   63.1989,       592,
   63.2191,       636,
   63.2392,       608,
   63.2594,       588,
   63.2796,       586,
   63.2997,       567,
   63.3199,       601,
   63.3401,       617,
   63.3602,       639,
   63.3804,       644,
   63.4006,       644,
   63.4207,       588,
   63.4409,       617,
   63.4611,       666,
   63.4812,       600,
   63.5014,       633,
   63.5216,       613,
   63.5417,       633,
   63.5619,       618,
   63.5821,       642,
   63.6023,       656,
   63.6224,       614,
   63.6426,       647,
   63.6628,       649,
   63.6829,       629,
   63.7031,       633,
   63.7233,       603,
   63.7434,       606,
   63.7636,       641,
   63.7838,       627,
   63.8039,       545,
   63.8241,       618,
   63.8443,       606,
   63.8644,       655,
   63.8846,       617,
   63.9048,       620,
   63.9249,       610,
   63.9451,       606,
   63.9653,       632,
   63.9855,       625,
   64.0056,       644,
   64.0258,       655,
    64.046,       640,
   64.0661,       666,
   64.0863,       615,
   64.1065,       598,
   64.1266,       626,
   64.1468,       639,
    64.167,       629,
   64.1871,       627,
   64.2073,       606,
   64.2275,       638,
   64.2476,       650,
   64.2678,       650,
    64.288,       617,
   64.3082,       613,
   64.3283,       644,
   64.3485,       655,
   64.3687,       630,
   64.3888,       620,
    64.409,       631,
   64.4292,       648,
   64.4493,       631,
   64.4695,       640,
   64.4897,       620,
   64.5098,       651,
     64.53,       587,
   64.5502,       607,
   64.5703,       600,
   64.5905,       636,
   64.6107,       603,
   64.6308,       631,
    64.651,       624,
   64.6712,       586,
   64.6914,       596,
   64.7115,       632,
   64.7317,       589,
   64.7519,       595,
    64.772,       651,
   64.7922,       600,
   64.8124,       578,
   64.8325,       629,
   64.8527,       599,
   64.8729,       609,
    64.893,       662,
   64.9132,       618,
   64.9334,       644,
   64.9535,       606,
   64.9737,       607,
   64.9939,       629,
    65.014,       590,
   65.0342,       685,
   65.0544,       616,
   65.0746,       585,
   65.0947,       610,
   65.1149,       669,
   65.1351,       607,
   65.1552,       625,
   65.1754,       590,
   65.1956,       598,
   65.2157,       586,
   65.2359,       585,
   65.2561,       653,
   65.2762,       591,
   65.2964,       619,
   65.3166,       585,
   65.3367,       614,
   65.3569,       621,
   65.3771,       630,
   65.3973,       633,
   65.4174,       625,
   65.4376,       633,
   65.4578,       605,
   65.4779,       626,
   65.4981,       617,
   65.5183,       675,
   65.5384,       620,
   65.5586,       617,
   65.5788,       632,
   65.5989,       666,
   65.6191,       650,
   65.6393,       667,
   65.6594,       636,
   65.6796,       611,
   65.6998,       616,
   65.7199,       618,
   65.7401,       616,
   65.7603,       611,
   65.7805,       648,
   65.8006,       640,
   65.8208,       654,
    65.841,       619,
   65.8611,       644,
   65.8813,       629,
   65.9015,       624,
   65.9216,       590,
   65.9418,       600,
    65.962,       632,
   65.9821,       609,
   66.0023,       632,
   66.0225,       626,
   66.0426,       619,
   66.0628,       611,
    66.083,       611,
   66.1032,       591,
   66.1233,       632,
   66.1435,       632,
   66.1637,       630,
   66.1838,       622,
    66.204,       603,
   66.2242,       609,
   66.2443,       611,
   66.2645,       617,
   66.2847,       652,
   66.3048,       668,
    66.325,       629,
   66.3452,       606,
   66.3653,       617,
   66.3855,       631,
   66.4057,       603,
   66.4258,       639,
    66.446,       619,
   66.4662,       618,
   66.4864,       602,
   66.5065,       609,
   66.5267,       592,
   66.5469,       626,
    66.567,       616,
   66.5872,       595,
   66.6074,       614,
   66.6275,       653,
   66.6477,       645,
   66.6679,       627,
    66.688,       620,
   66.7082,       649,
   66.7284,       641,
   66.7485,       608,
   66.7687,       624,
   66.7889,       617,
    66.809,       633,
   66.8292,       558,
   66.8494,       652,
   66.8696,       571,
   66.8897,       606,
   66.9099,       594,
   66.9301,       578,
   66.9502,       598,
   66.9704,       598,
   66.9906,       628,
   67.0107,       621,
   67.0309,       661,
   67.0511,       643,
   67.0712,       630,
   67.0914,       618,
   67.1116,       614,
   67.1317,       628,
   67.1519,       627,
   67.1721,       631,
   67.1923,       578,
   67.2124,       585,
   67.2326,       628,
   67.2528,       617,
   67.2729,       607,
   67.2931,       581,
   67.3133,       632,
   67.3334,       566,
   67.3536,       634,
   67.3738,       605,
   67.3939,       591,
   67.4141,       662,
   67.4343,       597,
   67.4544,       608,
   67.4746,       629,
   67.4948,       649,
   67.5149,       633,
   67.5351,       644,
   67.5553,       662,
   67.5755,       683,
   67.5956,       668,
   67.6158,       643,
    67.636,       598,
   67.6561,       648,
   67.6763,       603,
   67.6965,       629,
   67.7166,       622,
   67.7368,       628,
    67.757,       599,
   67.7771,       624,
   67.7973,       616,
   67.8175,       644,
   67.8376,       586,
   67.8578,       598,
    67.878,       554,
   67.8981,       622,
   67.9183,       642,
   67.9385,       596,
   67.9587,       583,
   67.9788,       613,
    67.999,       641,
   68.0192,       629,
   68.0393,       588,
   68.0595,       591,
   68.0797,       643,
   68.0998,       654,
     68.12,       606,
   68.1402,       602,
   68.1603,       628,
   68.1805,       694,
   68.2007,       652,
   68.2208,       659,
    68.241,       609,
   68.2612,       660,
   68.2814,       569,
   68.3015,       621,
   68.3217,       632,
   68.3419,       653,
    68.362,       625,
   68.3822,       632,
   68.4024,       636,
   68.4225,       612,
   68.4427,       640,
   68.4629,       615,
    68.483,       616,
   68.5032,       678,
   68.5234,       557,
   68.5435,       590,
   68.5637,       635,
   68.5839,       598,
    68.604,       626,
   68.6242,       650,
   68.6444,       626,
   68.6646,       589,
   68.6847,       633,
   68.7049,       624,
   68.7251,       600,
   68.7452,       604,
   68.7654,       602,
   68.7856,       598,
   68.8057,       638,
   68.8259,       596,
   68.8461,       594,
   68.8662,       563,
   68.8864,       621,
   68.9066,       582,
   68.9267,       585,
   68.9469,       653,
   68.9671,       614,
   68.9872,       618,
   69.0074,       593,
   69.0276,       638,
   69.0478,       639,
   69.0679,       648,
   69.0881,       612,
   69.1083,       643,
   69.1284,       594,
   69.1486,       613,
   69.1688,       616,
   69.1889,       610,
   69.2091,       621,
   69.2293,       608,
   69.2494,       591,
   69.2696,       685,
   69.2898,       576,
   69.3099,       620,
   69.3301,       648,
   69.3503,       639,
   69.3705,       620,
   69.3906,       609,
   69.4108,       608,
    69.431,       614,
   69.4511,       647,
   69.4713,       647,
   69.4915,       602,
   69.5116,       622,
   69.5318,       605,
    69.552,       623,
   69.5721,       643,
   69.5923,       614,
   69.6125,       608,
   69.6326,       584,
   69.6528,       622,
    69.673,       656,
   69.6931,       624,
   69.7133,       605,
   69.7335,       608,
   69.7537,       612,
   69.7738,       656,
    69.794,       613,
   69.8142,       624,
   69.8343,       619,
   69.8545,       626,
   69.8747,       607,
   69.8948,       623,
    69.915,       634,
   69.9352,       582,
   69.9553,       612,
   69.9755,       619,
   69.9957,       584,
   70.0158,       610,
    70.036,       613,
   70.0562,       637,
   70.0763,       629,
   70.0965,       558,
   70.1167,       616,
   70.1369,       603,
    70.157,       610,
   70.1772,       631,
   70.1974,       600,
   70.2175,       618,
   70.2377,       577,
   70.2579,       605,
    70.278,       620,
   70.2982,       566,
   70.3184,       600,
   70.3385,       633,
   70.3587,       628,
   70.3789,       604,
    70.399,       623,
   70.4192,       576,
   70.4394,       637,
   70.4596,       635,
   70.4797,       644,
   70.4999,       627,
   70.5201,       633,
   70.5402,       562,
   70.5604,       610,
   70.5806,       628,
   70.6007,       589,
   70.6209,       663,
   70.6411,       650,
   70.6612,       644,
   70.6814,       660,
   70.7016,       628,
   70.7217,       586,
   70.7419,       603,
   70.7621,       609,
   70.7822,       640,
   70.8024,       660,
   70.8226,       609,
   70.8428,       603,
   70.8629,       594,
   70.8831,       609,
   70.9033,       662,
   70.9234,       638,
   70.9436,       606,
   70.9638,       589,
   70.9839,       615,
   71.0041,       602,
   71.0243,       615,
   71.0444,       592,
   71.0646,       641,
   71.0848,       645,
   71.1049,       621,
   71.1251,       636,
   71.1453,       645,
   71.1654,       617,
   71.1856,       612,
   71.2058,       643,
    71.226,       652,
   71.2461,       673,
   71.2663,       673,
   71.2865,       633,
   71.3066,       606,
   71.3268,       659,
    71.347,       657,
   71.3671,       658,
   71.3873,       639,
   71.4075,       642,
   71.4276,       620,
   71.4478,       623,
    71.468,       623,
   71.4881,       671,
   71.5083,       679,
   71.5285,       611,
   71.5487,       663,
   71.5688,       648,
    71.589,       605,
   71.6092,       651,
   71.6293,       621,
   71.6495,       652,
   71.6697,       628,
   71.6898,       615,
     71.71,       649,
   71.7302,       674,
   71.7503,       645,
   71.7705,       642,
   71.7907,       658,
   71.8108,       652,
    71.831,       648,
   71.8512,       627,
   71.8713,       648,
   71.8915,       633,
   71.9117,       634,
   71.9319,       701,
    71.952,       643,
   71.9722,       646,
   71.9924,       648,
   72.0125,       649,
   72.0327,       638,
   72.0529,       615,
    72.073,       645,
   72.0932,       611,
   72.1134,       650,
   72.1335,       622,
   72.1537,       632,
   72.1739,       610,
    72.194,       621,
   72.2142,       616,
   72.2344,       656,
   72.2546,       640,
   72.2747,       605,
   72.2949,       641,
   72.3151,       663,
   72.3352,       645,
   72.3554,       646,
   72.3756,       645,
   72.3957,       618,
   72.4159,       636,
   72.4361,       622,
   72.4562,       603,
   72.4764,       650,
   72.4966,       647,
   72.5167,       656,
   72.5369,       645,
   72.5571,       649,
   72.5772,       632,
   72.5974,       595,
   72.6176,       643,
   72.6378,       617,
   72.6579,       609,
   72.6781,       644,
   72.6983,       649,
   72.7184,       646,
   72.7386,       661,
   72.7588,       697,
   72.7789,       673,
   72.7991,       639,
   72.8193,       646,
   72.8394,       653,
   72.8596,       618,
   72.8798,       675,
   72.8999,       671,
   72.9201,       664,
   72.9403,       632,
   72.9604,       662,
   72.9806,       682,
   73.0008,       687,
    73.021,       665,
   73.0411,       683,
   73.0613,       683,
   73.0815,       681,
   73.1016,       695,
   73.1218,       656,
    73.142,       668,
   73.1621,       676,
   73.1823,       690,
   73.2025,       714,
   73.2226,       708,
   73.2428,       693,
    73.263,       697,
   73.2831,       779,
   73.3033,       727,
   73.3235,       805,
   73.3437,       822,
   73.3638,       925,
    73.384,       883,
   73.4042,       903,
   73.4243,       891,
   73.4445,       928,
   73.4647,       918,
   73.4848,       919,
    73.505,       975,
   73.5252,      1019,
   73.5453,      1022,
   73.5655,      1131,
   73.5857,      1187,
   73.6058,      1294,
    73.626,      1559,
   73.6462,      1971,
   73.6663,      2639,
   73.6865,      4119,
   73.7067,      6523,
   73.7269,     10352,
    73.747,     13363,
   73.7672,     12472,
   73.7874,      8422,
   73.8075,      5106,
   73.8277,      3329,
   73.8479,      2547,
    73.868,      2271,
   73.8882,      2559,
   73.9084,      3075,
   73.9285,      4647,
   73.9487,      6212,
   73.9689,      7013,
    73.989,      6190,
   74.0092,      4266,
   74.0294,      2746,
   74.0495,      1954,
   74.0697,      1470,
   74.0899,      1288,
   74.1101,      1082,
   74.1302,       968,
   74.1504,       945,
   74.1706,       938,
   74.1907,       865,
   74.2109,       793,
   74.2311,       836,
   74.2512,       786,
   74.2714,       846,
   74.2916,       778,
   74.3117,       727,
   74.3319,       761,
   74.3521,       730,
   74.3722,       709,
   74.3924,       698,
   74.4126,       723,
   74.4328,       667,
   74.4529,       679,
   74.4731,       681,
   74.4933,       726,
   74.5134,       699,
   74.5336,       695,
   74.5538,       688,
   74.5739,       683,
   74.5941,       688,
   74.6143,       655,
   74.6344,       681,
   74.6546,       647,
   74.6748,       679,
   74.6949,       660,
   74.7151,       681,
   74.7353,       648,
   74.7554,       677,
   74.7756,       619,
   74.7958,       659,
    74.816,       662,
   74.8361,       648,
   74.8563,       685,
   74.8765,       671,
   74.8966,       650,
   74.9168,       651,
    74.937,       685,
   74.9571,       665,
   74.9773,       645,
   74.9975,       661,
   75.0176,       639,
   75.0378,       651,
    75.058,       661,
   75.0781,       687,
   75.0983,       636,
   75.1185,       630,
   75.1386,       657,
   75.1588,       682,
    75.179,       656,
   75.1992,       635,
   75.2193,       631,
   75.2395,       632,
   75.2597,       654,
   75.2798,       616,
      75.3,       690,
   75.3202,       617,
   75.3403,       658,
   75.3605,       639,
   75.3807,       587,
   75.4008,       677,
    75.421,       646,
   75.4412,       671,
   75.4613,       673,
   75.4815,       704,
   75.5017,       659,
   75.5219,       634,
    75.542,       643,
   75.5622,       637,
   75.5824,       619,
   75.6025,       660,
   75.6227,       631,
   75.6429,       708,
    75.663,       686,
   75.6832,       675,
   75.7034,       651,
   75.7235,       619,
   75.7437,       659,
   75.7639,       616,
    75.784,       625,
   75.8042,       614,
   75.8244,       645,
   75.8445,       628,
   75.8647,       700,
   75.8849,       646,
   75.9051,       609,
   75.9252,       649,
   75.9454,       632,
   75.9656,       654,
   75.9857,       621,
   76.0059,       600,
   76.0261,       643,
   76.0462,       666,
   76.0664,       601,
   76.0866,       637,
   76.1067,       618,
   76.1269,       587,
   76.1471,       651,
   76.1672,       639,
   76.1874,       631,
   76.2076,       609,
   76.2277,       642,
   76.2479,       642,
   76.2681,       622,
   76.2883,       655,
   76.3084,       612,
   76.3286,       620,
   76.3488,       618,
   76.3689,       613,
   76.3891,       624,
   76.4093,       620,
   76.4294,       632,
   76.4496,       619,
   76.4698,       640,
   76.4899,       648,
   76.5101,       645,
   76.5303,       654,
   76.5504,       622,
   76.5706,       609,
   76.5908,       596,
    76.611,       610,
   76.6311,       654,
   76.6513,       596,
   76.6715,       633,
   76.6916,       613,
   76.7118,       646,
    76.732,       625,
   76.7521,       641,
   76.7723,       640,
   76.7925,       605,
   76.8126,       628,
   76.8328,       644,
    76.853,       640,
   76.8731,       623,
   76.8933,       622,
   76.9135,       616,
   76.9336,       660,
   76.9538,       636,
    76.974,       641,
   76.9942,       625,
   77.0143,       629,
   77.0345,       643,
   77.0547,       673,
   77.0748,       669,
    77.095,       649,
   77.1152,       663,
   77.1353,       631,
   77.1555,       631,
   77.1757,       650,
   77.1958,       633,
    77.216,       591,
   77.2362,       620,
   77.2563,       635,
   77.2765,       672,
   77.2967,       632,
   77.3169,       653,
    77.337,       598,
   77.3572,       641,
   77.3774,       655,
   77.3975,       631,
   77.4177,       655,
   77.4379,       621,
    77.458,       654,
   77.4782,       591,
   77.4984,       635,
   77.5185,       622,
   77.5387,       628,
   77.5589,       613,
    77.579,       650,
   77.5992,       631,
   77.6194,       622,
   77.6395,       632,
   77.6597,       617,
   77.6799,       620,
   77.7001,       653,
   77.7202,       625,
   77.7404,       647,
   77.7606,       663,
   77.7807,       641,
   77.8009,       623,
   77.8211,       627,
   77.8412,       590,
   77.8614,       646,
   77.8816,       636,
   77.9017,       635,
   77.9219,       611,
   77.9421,       635,
   77.9622,       628,
   77.9824,       632,
   78.0026,       652,
   78.0227,       611,
   78.0429,       639,
   78.0631,       662,
   78.0833,       598,
   78.1034,       623,
   78.1236,       647,
   78.1438,       638,
   78.1639,       618,
   78.1841,       640,
   78.2043,       666,
   78.2244,       615,
   78.2446,       631,
   78.2648,       644,
   78.2849,       639,
   78.3051,       644,
   78.3253,       689,
   78.3454,       608,
   78.3656,       621,
   78.3858,       637,
    78.406,       649,
   78.4261,       634,
   78.4463,       582,
   78.4665,       617,
   78.4866,       656,
   78.5068,       663,
    78.527,       625,
   78.5471,       636,
   78.5673,       604,
   78.5875,       622,
   78.6076,       673,
   78.6278,       613,
    78.648,       614,
   78.6681,       621,
   78.6883,       626,
   78.7085,       638,
   78.7286,       607,
   78.7488,       663,
    78.769,       600,
   78.7892,       669,
   78.8093,       635,
   78.8295,       624,
   78.8497,       611,
   78.8698,       633,
     78.89,       625,
   78.9102,       631,
   78.9303,       577,
   78.9505,       629,
   78.9707,       615,
   78.9908,       601,
    79.011,       641,
   79.0312,       578,
   79.0513,       711,
   79.0715,       648,
   79.0917,       596,
   79.1118,       644,
    79.132,       627,
   79.1522,       672,
   79.1724,       628,
   79.1925,       612,
   79.2127,       601,
   79.2329,       625,
    79.253,       614,
   79.2732,       619,
   79.2934,       666,
   79.3135,       598,
   79.3337,       611,
   79.3539,       633,
    79.374,       634,
   79.3942,       644,
   79.4144,       634,
   79.4345,       652,
   79.4547,       615,
   79.4749,       654,
   79.4951,       640,
   79.5152,       622,
   79.5354,       638,
   79.5556,       681,
   79.5757,       624,
   79.5959,       622,
   79.6161,       628,
   79.6362,       604,
   79.6564,       619,
   79.6766,       648,
   79.6967,       671,
   79.7169,       627,
   79.7371,       612,
   79.7572,       630,
   79.7774,       627,
   79.7976,       658,
   79.8177,       646,
   79.8379,       615,
   79.8581,       603,
   79.8783,       588,
   79.8984,       648,
   79.9186,       606,
   79.9388,       634,
   79.9589,       621,
   79.9791,       657,
   79.9993,       608,
