;RAW4.00
[RawHeader]
Date=07/07/2025
EstimatedTotalTime=545.8
FurtherDQLReading=0
HardwareIndicator=65519
MeasuredTotalTime=5.48827
MeasurementFlag=1
NumberOfMeasuredRanges=1
NumberOfRanges=1
Time=17:41:59

[VarInfo]
Type=USER
Flags=0
Value=Lab Manager

[VarInfo]
Type=SAMPLEID
Flags=0
Value=Commander Sample ID

[VarInfo]
Type=COMMENT
Flags=0
Value=

[VarInfo]
Type=UTF
Flags=0
Value=

[VarInfo]
Type=CREATOR
Flags=0
Value=V5Converter

[VarInfo]
Type=CREATOR_VERSION
Flags=0
Value=4.4.16.0

[HardwareConfiguration]
AbsorptionFactor=9999
ActivateAbsorber=0
Alpha1=1.5406
Alpha2=1.54439
AlphaAverage=1.54184
AlphaRatio=0.5
Analyzer=0
Anode=Cu
AntiScatteringSlit=9999
BeamOpticsFlags=0
Beta=1.39222
BetaRelativeIntensity=0
DeactivateAbsorber=0
DetectorSlit=9999
DivergenceSlit=9999
GoniometerControl=0
GoniometerDiameter=282
GoniometerModel=256
GoniometerStage=7
Monochromator=0
NearSampleSlit=9999
PrimarySollerSlit=9999
SampleChanger=0
SecondSollerSlit=9999
SynchronousAxis=0
ThinFilmAttachment=9999
WaveUnit=A

[RangeHeader]
ActuallyUsedLambda=1.54184
AdditionalDetectorMask=257
DataRecordLength=4
DelayTime=0
DisplayPlaneNumber=0
EstimatedScanTime=546
ExtraParametersMask=0
GeneratorCurrent=10
GeneratorVoltage=30
Increment=0.0201685
Increment3=0
NumberOfCompletedData=2481
NumberOfCounts=1
NumberOfDetectors=0
NumberOfDrives=3
NumberOfEncoderDrives=0
NumberOfMeasuredData=2481
NumberOfVaryingParameters=0
RangeStartTime=0
RotationSpeed=0
ScanMode=1
ScanType=Locked Coupled
SimulatedMeasConditions=0
SlitChangerIn=0
SmootingWidth=0
Start=30.0015
Steps=2481
SynchronousRotation=0
Time=33

[VarInfo]
Type=PSD_DISCRIM
Flags=0
Value=0.11;0.5

[VarInfo]
Type=OPTICS_V5
Flags=0
Value=H4sIAAAAAAAEAO1d63KjOhJ+Fda/zqmtBIPtXKaITzm2J+OaOHbFTnKmtrZcBORYZzC4AOey//d99hl2X2x1QViIS8C3JBN+TCaodWm6+2vUUkfS/nieW9IjcD3o2GcV5bBakYBtOCa0H84qS396oBxV/mhqF44NnTnwgdt25gvHBrbf0X1dQq1t78uzB88qM99ffJHlp6enw6faoeM+yGq1qsh/9i9HxgzM9QNoe75uG6AStjJfb1WRbqEH7y1wpc/BWWXFR0joAM9w4cInL/Bj4UHLsSW+3oXrLBc9NBZ6t3Pgojcb3P8FDH+o+7OzitwBj9AAMt+CrxUfl1Lblu55QRehTORzoM8XqLDt2L4ObeBy/coBc6yHluEvdYtxoR6o1ePT02O5h8TkLue4tzhrTW2EZGjqqBswQr3oFvyXjl+9OdUtD2hyGln7c259hcAyrwHqHhq4EDFpA/KbJ8lNjfKD1ToCFipvdm00JDA1OUbR6Btwou9Ab2HpL824AjQ5tXK8m+bF4OrHhPzodEft64TGrBVWDOsoPhpP1bBWhrxWvISy1r0hIUP+4r8skMLHrm78xG8sGODQhXPdfSHkZBMMakgD9GxISBvSeHkPOIFIQeOidilHx44baRI9r5mSRmyEDSxUYBJZ3blu/xy4JnCvAfYzAL0wsdX3b8s5NVnMwIfj6+8T9KPV/l7IxHm5Jhp5z0OvBh9BE+kGCS98DAk920dCZMIVSikeHA9SJulgmhwp1bAq2ZMXfZT4B2LSAxc+QFu3ogSlwl6OWi7Ssb/0moPwnSLFGmsYPPedJdIj0qJQrgWE0MJ5JCOdEXICmjFtjmnJUA7J0tRxpRHQLUBtYA3AytxYcejGiMm4JZa46kmmLG0LrhEWBa3xcus++8A2MZDfDYZpCWdMkQKtj5nwHfcltGVFk+OFGseMJxH2qHoYWND7cnJosmJN5ku1uCnh1+H65qyTKx3Y545jAR1NEG5s6BPpdiDSG56bXcI59IlYwiKvWdVk7knrgKm+tPxb3VoCboigVyQ96CPXTshnFewlKri/oQta5l9LD8GnYEuZYx67mbHTJoqe6ZblPK0cjVCOarZnwPgJzFUVVqC1ESPOHKsWvx33pNH5Zl7erhEyxkg2xVq1lr7TdoHug6HrLIDrvzAWEyiR9/eIRfdMhLKr5fweuE21rslCEdaQRS08UPF//xMyUSUc9B0TNG8Quqbos4xMnTwz90Y+PzEHluy7tuWt5HgP/ND5vNXOHBXjLvaN2aNbYuh5A79Evm3IJvErCL6JJ23LP418rD3OPSHRTOHDEjnla/gw85sIdabECnU0BoKwUKWYS+vrz5fAfvBnTbXRwKJhj2nOjrJISkNktZevObqMVm/q5DL4SnFwGS02cm5pFninPwKqkpa1mOmKYIUieVuWOJh2nCVqyWzxf//ehzWm2Nxw9uJBQ7dIeQJnTA/KYaNePXrNFtfo7ca2MPfItOjcf/WMZelYS+paugfVBtErK9H60Ibz5bx5oBwenx4fndaUWv3kSK0pjePu32vVE4S4oAZGIvklvWZQ4W0Rs4b0UpC0Rk/7QJiajTD10yOsXjvdJsRYdyXGNhLfFkDGuto1yh6Bqz+IoV6M/ulxppzUt4kz1l2Js43EtwWcsa52jLNz4OupIMPET46w2qmqqttD2Kq7EmEbiW9jhK262jHCrvGaRirECHVXGHuvCFutth02NsJWrKMSVWsKbh08xTrZCZK+OsbSG7gQ2D5ZHRSgJJK3tspG1g4H057tH9XfH6CibEVXr/OjKbkXhfRCBYDfqOeDOWLs0nmABl3VvJn0rm5bl73OpP2tN9TkFYkJfAye/WbPftQtiMQzg4uVjCJaIvW07+CFjI1lEf6uyTEWsnm67F2lsnIJbSARW0kbWtlk6OEgY+yhA20/e3B1k8GZLoaD0auqCHeKD6S58wgk35HmwJjpNrYKCTmTxd/SeKxl8/ienF2WXefzdFk9bOTm6N5Lz546UqiqhAVciZbr3FOQY3BWIVUkVBrdJr+ZtC6H31rRcrGRhEeyyEjkXXKxo0bYURPZUVPYUbPYUQuzEywL8PxEyoQBQloib5PW7UUWe0HrokySmCrg8D78PeybkkWGzrvjVjIvuH4+FiIbUQEDqBXeyxN46LJSkY3uZbffvRqnSMV2TCAFbaXVSDlkQmfBvNq4EkHsASVZZdetcW+QpTTSOp+8YlOLgL9pYnk4ToQicvl10J4MrpMZJONJkeZyfMe6Ed+xvgA2skTfcYU8TFacvPmcsQFLZ8dr7r82tXQiP3O7dSw/voYXlO4q5vl5u6WEjcypLxqFfRNqVSHyCL4FKaFHctihVBMCjFp1f7FErbF+MBEXRsEvZLo55TW19tJ1sT+LmlpQuitTm7f2YWpolHD6sQ1TaySFsh/E0uKy2LulDZ0nkgHOmxQp25WV3aUEnW+xcHMnRJr5lluqhymm+EkWW+4491hde7Ul3ssWbV9+7YtfJA0UTQyNGXBfyVbbPA8ud74bklUw60j9YgWfilQ/I4dzraYmBmuZ2QhiKJW9qxqLdLI3h6IxR/YytzAXT1vD42MIIXVJnC4nR8cylyaJ7OZRhxZeJcCPHu2eWH2ZQFkmUJYJlGUCZZlA+fE2xcsEyvezJV4mUP6aCCsTKN8TxsoEyl8VZ2UC5XvCWZlA+ashrEygfE8IKxMoywTKMoGyTKAsEyjLBMoygbJMoCwTKMsEyjKBskygLBMoywTKMoGyTKAsEyjLBMoygbJMoHzr+KNMoCwTKD9tAiXLkUS/iumT7KzT+Cmg4tm7GScqd+cL/4UkG4arGcVOT+72h4PRhP4scnoyGTg0xcTzk2U+BzLzcGMl7XBjde+HGw8WbefceR5MR45lATfhiGNKyDjkmKsg/WbotmTQQ8ElNJZEifQE7N/XgX9k+LhXSSBnuYaE6hunwkb7FPSZfOxxRGTIPPKL8PePe2KymphYK0bAR+scevtxXAin6Q2diJrmRGpv50S+wmdgEkNlcw/RmVjQz3IliCz1U2CAaRv4kdXICV5EJGb6ELHy5h6E61FQZYr/YA2o98gntQ/sOmq5XMfxeudlE7OmVzSsTJpYMhZe0hcRy1SR/jGf/zPDjH/DR/7fA2QfErQ9hAVgol98R9I5hWWaMq5mhBds4KeJUp0oaQYcIb5mwIVtN52ZmPP5qH/5US30lx930PRnYm4HLtvZktP8/WxBxzgL44DNsuvjPeVdZqh+7nWGuODWWWeI97KTtI5vABumgB1a+LnBszXslNBZz+i3gpzt3wSirjOzGenzhQXuZgBYY/QC/KUgIkkjH65UJ0ChmfamMj+F+lCxGJtFbxiJ1dIisfpGkRjhMR6HvT9h3thLD5hkeHHgLInKwm1g17oJl16CldWVYB+fXrg3mE494KdZfesZevz3Iay2B1ceYybnbh1ywVU1LSlVPTypn6qNRkNN8LvHjcOTRv24dqQqvK8VhNAM7mETbitc+w7DEUCRgJl9i2FYh7v9roNCXwNnMmzhLkORh4SYKLFGsfsMwz42ifVFRj70nYaF9FrM/4zwzYaj4jcbRuW787sNw+F2cbvhyRss3uHlOks3wMyxzMQtgMsX+xm8pBxzcfnj6s/ujy654bCjSsOZ7olX4OYEsRyOEwezQMpa3mDWKOO8X3k4Wj2jProvYAvX6KYzLmrzl7v28CTPUlxNiU9Yi8wL0ecUu0XdWrmWfniNJk2pxn6HJHazGl4xZ9PpjyfkXwFHw4ba6R6gstmscZebgP09bgIKCIswkLYN2N/zNmAmj6JSs3YC+59rJ1Cp53Ii1c+wFVhGSkUjpbRAqXF4dHrSUJRqPWmBqqEcHldP68dqfQeB0sontAHGieA9hcKI4+SmzLSadMAw70kjnLfkkW8dVkPLMIDnOS4E3hoRE+Mi7j2jlLwRUvyl1/ekrIcPHRqtqcpiLudicNWekB9FHA7lZ+eh0Ri4qHQnkdHp3mdFwxkkShPAfO0EGXBRYgTUqKlErdE1Wb0CGJXZGHSdNqGDKCsJ1TJnP6vqMuJUZpxuDuAUxgVFpsREEgUYMFu+rxszPNBZ5WDPRwluc5pzmitr4SQ+y+l5TBQhKMMCjfMcZLfIWj48ALPjYkzSv8ZE3eHvWs9sIu2S3oNHTCEVRwtgwGnwt6KsUpyC4BLvvcgEK46DYs5u+K03mpAfRZxdFKHbnGBVi0yvQisOP5lEYfRDEPwf22IqXU7pckqXI7qcECvsd+8VLsZPznhGTjB6jZVIzZz8ZA+dc9yig6ZEJvFifFQxXo8YAd9H0PIkfi6GHAXNPKxILbzB7vVR6AbplI5NtLGOuVT/5i2e1Rn4EFu+VFtBkewhB6uqmiyUa3yqI/WAkWUTj/6JxSqYYK6D6Pv/u9RXv2COAAA=

[PSD]
ActualTwoTheta=9999
FirstUsedChannel=0
FixedPSD=0
PSDOpening=4.99171
PSDType=5

[Drive]
DriveFlags=1
DriveName=2Theta
DriveNumber=2
DriveOffset=0
OffsetIndex=0
OscillationAmplitude=0
OscillationSpeed=0
StartPosition=30.0015

[Drive]
DriveFlags=1
DriveName=Theta
DriveNumber=1
DriveOffset=0
OffsetIndex=0
OscillationAmplitude=0
OscillationSpeed=0
StartPosition=15.0007

[Drive]
DriveFlags=1
DriveName=Phi
DriveNumber=3
DriveOffset=0
OffsetIndex=0
OscillationAmplitude=0
OscillationSpeed=0
StartPosition=0

[Data]
     Angle,       PSD,
   30.0015,       728,
   30.0217,       737,
   30.0418,       743,
    30.062,       765,
   30.0822,       726,
   30.1023,       718,
   30.1225,       703,
   30.1427,       692,
   30.1628,       745,
    30.183,       736,
   30.2032,       735,
   30.2233,       712,
   30.2435,       728,
   30.2637,       776,
   30.2838,       729,
    30.304,       754,
   30.3242,       755,
   30.3444,       779,
   30.3645,       731,
   30.3847,       720,
   30.4049,       734,
    30.425,       770,
   30.4452,       718,
   30.4654,       774,
   30.4855,       733,
   30.5057,       745,
   30.5259,       740,
    30.546,       741,
   30.5662,       695,
   30.5864,       721,
   30.6065,       729,
   30.6267,       719,
   30.6469,       722,
   30.6671,       707,
   30.6872,       735,
   30.7074,       768,
   30.7276,       721,
   30.7477,       755,
   30.7679,       717,
   30.7881,       721,
   30.8082,       725,
   30.8284,       689,
   30.8486,       726,
   30.8687,       749,
   30.8889,       779,
   30.9091,       777,
   30.9292,       712,
   30.9494,       725,
   30.9696,       744,
   30.9897,       716,
   31.0099,       765,
   31.0301,       786,
   31.0503,       727,
   31.0704,       714,
   31.0906,       727,
   31.1108,       735,
   31.1309,       727,
   31.1511,       746,
   31.1713,       702,
   31.1914,       735,
   31.2116,       673,
   31.2318,       752,
   31.2519,       707,
   31.2721,       742,
   31.2923,       798,
   31.3124,       746,
   31.3326,       725,
   31.3528,       724,
   31.3729,       770,
   31.3931,       727,
   31.4133,       739,
   31.4335,       772,
   31.4536,       758,
   31.4738,       808,
    31.494,       730,
   31.5141,       802,
   31.5343,       760,
   31.5545,       687,
   31.5746,       715,
   31.5948,       750,
    31.615,       704,
   31.6351,       771,
   31.6553,       735,
   31.6755,       703,
   31.6956,       722,
   31.7158,       746,
    31.736,       752,
   31.7562,       750,
   31.7763,       714,
   31.7965,       755,
   31.8167,       771,
   31.8368,       725,
    31.857,       749,
   31.8772,       700,
   31.8973,       798,
   31.9175,       688,
   31.9377,       727,
   31.9578,       762,
    31.978,       758,
   31.9982,       731,
   32.0183,       696,
   32.0385,       720,
   32.0587,       718,
   32.0788,       678,
    32.099,       715,
   32.1192,       735,
   32.1394,       732,
   32.1595,       689,
   32.1797,       696,
   32.1999,       696,
     32.22,       746,
   32.2402,       734,
   32.2604,       727,
   32.2805,       711,
   32.3007,       724,
   32.3209,       693,
    32.341,       690,
   32.3612,       699,
   32.3814,       734,
   32.4015,       754,
   32.4217,       793,
   32.4419,       715,
    32.462,       675,
   32.4822,       693,
   32.5024,       662,
   32.5226,       682,
   32.5427,       725,
   32.5629,       737,
   32.5831,       771,
   32.6032,       706,
   32.6234,       721,
   32.6436,       707,
   32.6637,       705,
   32.6839,       793,
   32.7041,       750,
   32.7242,       735,
   32.7444,       715,
   32.7646,       747,
   32.7847,       701,
   32.8049,       729,
   32.8251,       701,
   32.8453,       736,
   32.8654,       726,
   32.8856,       685,
   32.9058,       743,
   32.9259,       719,
   32.9461,       663,
   32.9663,       748,
   32.9864,       733,
   33.0066,       736,
   33.0268,       711,
   33.0469,       716,
   33.0671,       747,
   33.0873,       775,
   33.1074,       707,
   33.1276,       719,
   33.1478,       718,
   33.1679,       717,
   33.1881,       695,
   33.2083,       706,
   33.2285,       712,
   33.2486,       717,
   33.2688,       687,
    33.289,       714,
   33.3091,       720,
   33.3293,       706,
   33.3495,       744,
   33.3696,       703,
   33.3898,       757,
     33.41,       713,
   33.4301,       710,
   33.4503,       724,
   33.4705,       754,
   33.4906,       761,
   33.5108,       735,
    33.531,       735,
   33.5511,       788,
   33.5713,       693,
   33.5915,       714,
   33.6117,       692,
   33.6318,       711,
    33.652,       725,
   33.6722,       668,
   33.6923,       742,
   33.7125,       704,
   33.7327,       715,
   33.7528,       723,
    33.773,       659,
   33.7932,       700,
   33.8133,       760,
   33.8335,       695,
   33.8537,       704,
   33.8738,       712,
    33.894,       728,
   33.9142,       698,
   33.9344,       717,
   33.9545,       679,
   33.9747,       746,
   33.9949,       672,
    34.015,       718,
   34.0352,       716,
   34.0554,       688,
   34.0755,       724,
   34.0957,       711,
   34.1159,       689,
    34.136,       711,
   34.1562,       664,
   34.1764,       700,
   34.1965,       746,
   34.2167,       714,
   34.2369,       674,
    34.257,       679,
   34.2772,       679,
   34.2974,       726,
   34.3176,       692,
   34.3377,       680,
   34.3579,       731,
   34.3781,       658,
   34.3982,       726,
   34.4184,       694,
   34.4386,       712,
   34.4587,       675,
   34.4789,       709,
   34.4991,       683,
   34.5192,       728,
   34.5394,       710,
   34.5596,       650,
   34.5797,       669,
   34.5999,       677,
   34.6201,       717,
   34.6402,       701,
   34.6604,       680,
   34.6806,       673,
   34.7008,       720,
   34.7209,       696,
   34.7411,       693,
   34.7613,       682,
   34.7814,       722,
   34.8016,       682,
   34.8218,       670,
   34.8419,       719,
   34.8621,       687,
   34.8823,       685,
   34.9024,       670,
   34.9226,       678,
   34.9428,       636,
   34.9629,       659,
   34.9831,       716,
   35.0033,       700,
   35.0235,       704,
   35.0436,       685,
   35.0638,       677,
    35.084,       706,
   35.1041,       714,
   35.1243,       700,
   35.1445,       671,
   35.1646,       680,
   35.1848,       734,
    35.205,       670,
   35.2251,       684,
   35.2453,       670,
   35.2655,       733,
   35.2856,       676,
   35.3058,       686,
    35.326,       690,
   35.3461,       700,
   35.3663,       701,
   35.3865,       684,
   35.4067,       701,
   35.4268,       655,
    35.447,       692,
   35.4672,       665,
   35.4873,       731,
   35.5075,       672,
   35.5277,       720,
   35.5478,       712,
    35.568,       703,
   35.5882,       710,
   35.6083,       727,
   35.6285,       680,
   35.6487,       680,
   35.6688,       667,
    35.689,       708,
   35.7092,       703,
   35.7294,       724,
   35.7495,       716,
   35.7697,       659,
   35.7899,       690,
     35.81,       714,
   35.8302,       671,
   35.8504,       703,
   35.8705,       713,
   35.8907,       696,
   35.9109,       712,
    35.931,       665,
   35.9512,       716,
   35.9714,       656,
   35.9915,       690,
   36.0117,       735,
   36.0319,       730,
    36.052,       666,
   36.0722,       722,
   36.0924,       671,
   36.1126,       687,
   36.1327,       692,
   36.1529,       669,
   36.1731,       692,
   36.1932,       669,
   36.2134,       635,
   36.2336,       693,
   36.2537,       677,
   36.2739,       693,
   36.2941,       717,
   36.3142,       654,
   36.3344,       690,
   36.3546,       716,
   36.3747,       674,
   36.3949,       704,
   36.4151,       623,
   36.4352,       701,
   36.4554,       703,
   36.4756,       681,
   36.4958,       716,
   36.5159,       681,
   36.5361,       681,
   36.5563,       698,
   36.5764,       672,
   36.5966,       680,
   36.6168,       679,
   36.6369,       626,
   36.6571,       737,
   36.6773,       690,
   36.6974,       710,
   36.7176,       666,
   36.7378,       701,
   36.7579,       643,
   36.7781,       708,
   36.7983,       706,
   36.8185,       653,
   36.8386,       697,
   36.8588,       717,
    36.879,       688,
   36.8991,       682,
   36.9193,       758,
   36.9395,       666,
   36.9596,       739,
   36.9798,       655,
        37,       713,
   37.0201,       702,
   37.0403,       672,
   37.0605,       691,
   37.0806,       719,
   37.1008,       692,
    37.121,       698,
   37.1411,       714,
   37.1613,       724,
   37.1815,       660,
   37.2017,       671,
   37.2218,       711,
    37.242,       744,
   37.2622,       663,
   37.2823,       727,
   37.3025,       716,
   37.3227,       689,
   37.3428,       654,
    37.363,       718,
   37.3832,       694,
   37.4033,       720,
   37.4235,       708,
   37.4437,       632,
   37.4638,       751,
    37.484,       638,
   37.5042,       654,
   37.5243,       664,
   37.5445,       705,
   37.5647,       689,
   37.5849,       655,
    37.605,       703,
   37.6252,       700,
   37.6454,       715,
   37.6655,       700,
   37.6857,       674,
   37.7059,       671,
    37.726,       705,
   37.7462,       684,
   37.7664,       695,
   37.7865,       723,
   37.8067,       647,
   37.8269,       692,
    37.847,       655,
   37.8672,       710,
   37.8874,       706,
   37.9076,       680,
   37.9277,       709,
   37.9479,       718,
   37.9681,       694,
   37.9882,       700,
   38.0084,       662,
   38.0286,       716,
   38.0487,       699,
   38.0689,       746,
   38.0891,       674,
   38.1092,       695,
   38.1294,       679,
   38.1496,       677,
   38.1697,       706,
   38.1899,       731,
   38.2101,       697,
   38.2302,       699,
   38.2504,       661,
   38.2706,       727,
   38.2908,       702,
   38.3109,       709,
   38.3311,       692,
   38.3513,       718,
   38.3714,       685,
   38.3916,       686,
   38.4118,       712,
   38.4319,       748,
   38.4521,       742,
   38.4723,       716,
   38.4924,       719,
   38.5126,       773,
   38.5328,       711,
   38.5529,       739,
   38.5731,       698,
   38.5933,       724,
   38.6134,       742,
   38.6336,       706,
   38.6538,       702,
    38.674,       688,
   38.6941,       698,
   38.7143,       719,
   38.7345,       721,
   38.7546,       681,
   38.7748,       718,
    38.795,       711,
   38.8151,       761,
   38.8353,       723,
   38.8555,       669,
   38.8756,       707,
   38.8958,       702,
    38.916,       734,
   38.9361,       731,
   38.9563,       704,
   38.9765,       715,
   38.9967,       671,
   39.0168,       694,
    39.037,       748,
   39.0572,       700,
   39.0773,       754,
   39.0975,       715,
   39.1177,       715,
   39.1378,       692,
    39.158,       685,
   39.1782,       683,
   39.1983,       675,
   39.2185,       691,
   39.2387,       692,
   39.2588,       690,
    39.279,       740,
   39.2992,       745,
   39.3193,       674,
   39.3395,       691,
   39.3597,       680,
   39.3799,       688,
      39.4,       719,
   39.4202,       726,
   39.4404,       696,
   39.4605,       676,
   39.4807,       706,
   39.5009,       700,
    39.521,       730,
   39.5412,       712,
   39.5614,       678,
   39.5815,       738,
   39.6017,       658,
   39.6219,       701,
    39.642,       717,
   39.6622,       755,
   39.6824,       729,
   39.7025,       736,
   39.7227,       709,
   39.7429,       717,
   39.7631,       775,
   39.7832,       747,
   39.8034,       686,
   39.8236,       722,
   39.8437,       722,
   39.8639,       681,
   39.8841,       685,
   39.9042,       746,
   39.9244,       690,
   39.9446,       700,
   39.9647,       741,
   39.9849,       749,
   40.0051,       715,
   40.0252,       767,
   40.0454,       741,
   40.0656,       702,
   40.0858,       705,
   40.1059,       714,
   40.1261,       687,
   40.1463,       729,
   40.1664,       779,
   40.1866,       692,
   40.2068,       757,
   40.2269,       700,
   40.2471,       727,
   40.2673,       727,
   40.2874,       684,
   40.3076,       741,
   40.3278,       758,
   40.3479,       731,
   40.3681,       715,
   40.3883,       766,
   40.4084,       753,
   40.4286,       741,
   40.4488,       706,
    40.469,       730,
   40.4891,       723,
   40.5093,       745,
   40.5295,       716,
   40.5496,       717,
   40.5698,       747,
     40.59,       729,
   40.6101,       791,
   40.6303,       797,
   40.6505,       742,
   40.6706,       780,
   40.6908,       748,
    40.711,       758,
   40.7311,       765,
   40.7513,       692,
   40.7715,       740,
   40.7917,       724,
   40.8118,       767,
    40.832,       770,
   40.8522,       799,
   40.8723,       824,
   40.8925,       741,
   40.9127,       766,
   40.9328,       742,
    40.953,       742,
   40.9732,       759,
   40.9933,       730,
   41.0135,       713,
   41.0337,       742,
   41.0538,       694,
    41.074,       695,
   41.0942,       764,
   41.1143,       759,
   41.1345,       774,
   41.1547,       761,
   41.1749,       765,
    41.195,       799,
   41.2152,       728,
   41.2354,       812,
   41.2555,       730,
   41.2757,       824,
   41.2959,       843,
    41.316,       828,
   41.3362,       862,
   41.3564,       823,
   41.3765,       879,
   41.3967,       861,
   41.4169,       845,
    41.437,       848,
   41.4572,       793,
   41.4774,       851,
   41.4975,       842,
   41.5177,       853,
   41.5379,       838,
   41.5581,       828,
   41.5782,       870,
   41.5984,       856,
   41.6186,       877,
   41.6387,       830,
   41.6589,       871,
   41.6791,       830,
   41.6992,       878,
   41.7194,       891,
   41.7396,       886,
   41.7597,       906,
   41.7799,       897,
   41.8001,       837,
   41.8202,       915,
   41.8404,       902,
   41.8606,       934,
   41.8808,       957,
   41.9009,       934,
   41.9211,       940,
   41.9413,       906,
   41.9614,       930,
   41.9816,       926,
   42.0018,       990,
   42.0219,       917,
   42.0421,      1006,
   42.0623,       952,
   42.0824,       984,
   42.1026,      1017,
   42.1228,       973,
   42.1429,      1022,
   42.1631,      1013,
   42.1833,      1010,
   42.2034,      1050,
   42.2236,      1121,
   42.2438,      1081,
    42.264,      1105,
   42.2841,      1131,
   42.3043,      1201,
   42.3245,      1148,
   42.3446,      1162,
   42.3648,      1300,
    42.385,      1281,
   42.4051,      1402,
   42.4253,      1482,
   42.4455,      1451,
   42.4656,      1554,
   42.4858,      1668,
    42.506,      1769,
   42.5261,      1818,
   42.5463,      2080,
   42.5665,      2176,
   42.5866,      2345,
   42.6068,      2623,
    42.627,      2821,
   42.6472,      3119,
   42.6673,      3405,
   42.6875,      3865,
   42.7077,      4360,
   42.7278,      5098,
    42.748,      5973,
   42.7682,      6926,
   42.7883,      8241,
   42.8085,      9809,
   42.8287,     11851,
   42.8488,     13830,
    42.869,     15357,
   42.8892,     15343,
   42.9093,     14295,
   42.9295,     13490,
   42.9497,     12917,
   42.9699,     12571,
     42.99,     11899,
   43.0102,     10346,
   43.0304,      8833,
   43.0505,      7761,
   43.0707,      6469,
   43.0909,      5701,
    43.111,      5053,
   43.1312,      4388,
   43.1514,      4017,
   43.1715,      3388,
   43.1917,      3102,
   43.2119,      2766,
    43.232,      2523,
   43.2522,      2332,
   43.2724,      2129,
   43.2925,      1921,
   43.3127,      1907,
   43.3329,      1744,
   43.3531,      1611,
   43.3732,      1538,
   43.3934,      1509,
   43.4136,      1364,
   43.4337,      1328,
   43.4539,      1337,
   43.4741,      1261,
   43.4942,      1223,
   43.5144,      1171,
   43.5346,      1120,
   43.5547,      1141,
   43.5749,      1122,
   43.5951,      1167,
   43.6152,      1132,
   43.6354,      1066,
   43.6556,      1016,
   43.6757,      1056,
   43.6959,      1053,
   43.7161,      1027,
   43.7363,       997,
   43.7564,       924,
   43.7766,       987,
   43.7968,       918,
   43.8169,       916,
   43.8371,       965,
   43.8573,       914,
   43.8774,       957,
   43.8976,       883,
   43.9178,       955,
   43.9379,       843,
   43.9581,       925,
   43.9783,       860,
   43.9984,       890,
   44.0186,       908,
   44.0388,       863,
    44.059,       857,
   44.0791,       844,
   44.0993,       828,
   44.1195,       854,
   44.1396,       867,
   44.1598,       836,
     44.18,       852,
   44.2001,       844,
   44.2203,       832,
   44.2405,       824,
   44.2606,       811,
   44.2808,       769,
    44.301,       824,
   44.3211,       817,
   44.3413,       846,
   44.3615,       831,
   44.3816,       840,
   44.4018,       806,
    44.422,       801,
   44.4422,       859,
   44.4623,       778,
   44.4825,       797,
   44.5027,       829,
   44.5228,       818,
    44.543,       873,
   44.5632,       819,
   44.5833,       831,
   44.6035,       797,
   44.6237,       806,
   44.6438,       790,
    44.664,       762,
   44.6842,       809,
   44.7043,       777,
   44.7245,       796,
   44.7447,       787,
   44.7648,       814,
    44.785,       795,
   44.8052,       815,
   44.8254,       736,
   44.8455,       801,
   44.8657,       772,
   44.8859,       781,
    44.906,       766,
   44.9262,       788,
   44.9464,       778,
   44.9665,       857,
   44.9867,       756,
   45.0069,       720,
    45.027,       804,
   45.0472,       714,
   45.0674,       740,
   45.0875,       826,
   45.1077,       742,
   45.1279,       800,
   45.1481,       760,
   45.1682,       754,
   45.1884,       774,
   45.2086,       718,
   45.2287,       755,
   45.2489,       800,
   45.2691,       745,
   45.2892,       777,
   45.3094,       761,
   45.3296,       778,
   45.3497,       750,
   45.3699,       717,
   45.3901,       735,
   45.4102,       769,
   45.4304,       699,
   45.4506,       755,
   45.4707,       709,
   45.4909,       711,
   45.5111,       720,
   45.5313,       773,
   45.5514,       759,
   45.5716,       752,
   45.5918,       788,
   45.6119,       770,
   45.6321,       762,
   45.6523,       718,
   45.6724,       725,
   45.6926,       749,
   45.7128,       722,
   45.7329,       724,
   45.7531,       828,
   45.7733,       745,
   45.7934,       720,
   45.8136,       729,
   45.8338,       714,
    45.854,       742,
   45.8741,       827,
   45.8943,       686,
   45.9145,       727,
   45.9346,       730,
   45.9548,       758,
    45.975,       757,
   45.9951,       737,
   46.0153,       709,
   46.0355,       772,
   46.0556,       731,
   46.0758,       711,
    46.096,       767,
   46.1161,       768,
   46.1363,       771,
   46.1565,       700,
   46.1766,       746,
   46.1968,       705,
    46.217,       724,
   46.2372,       763,
   46.2573,       706,
   46.2775,       752,
   46.2977,       707,
   46.3178,       713,
    46.338,       735,
   46.3582,       709,
   46.3783,       783,
   46.3985,       780,
   46.4187,       708,
   46.4388,       726,
    46.459,       736,
   46.4792,       723,
   46.4993,       683,
   46.5195,       694,
   46.5397,       732,
   46.5598,       747,
     46.58,       720,
   46.6002,       709,
   46.6204,       709,
   46.6405,       702,
   46.6607,       784,
   46.6809,       689,
    46.701,       697,
   46.7212,       750,
   46.7414,       728,
   46.7615,       686,
   46.7817,       691,
   46.8019,       706,
    46.822,       721,
   46.8422,       712,
   46.8624,       768,
   46.8825,       714,
   46.9027,       666,
   46.9229,       705,
   46.9431,       705,
   46.9632,       698,
   46.9834,       658,
   47.0036,       738,
   47.0237,       705,
   47.0439,       711,
   47.0641,       695,
   47.0842,       721,
   47.1044,       773,
   47.1246,       772,
   47.1447,       740,
   47.1649,       675,
   47.1851,       773,
   47.2052,       707,
   47.2254,       726,
   47.2456,       708,
   47.2657,       707,
   47.2859,       765,
   47.3061,       710,
   47.3263,       769,
   47.3464,       684,
   47.3666,       733,
   47.3868,       732,
   47.4069,       706,
   47.4271,       702,
   47.4473,       736,
   47.4674,       676,
   47.4876,       730,
   47.5078,       685,
   47.5279,       719,
   47.5481,       719,
   47.5683,       691,
   47.5884,       694,
   47.6086,       675,
   47.6288,       718,
   47.6489,       739,
   47.6691,       757,
   47.6893,       717,
   47.7095,       680,
   47.7296,       758,
   47.7498,       695,
     47.77,       704,
   47.7901,       702,
   47.8103,       730,
   47.8305,       698,
   47.8506,       733,
   47.8708,       739,
    47.891,       708,
   47.9111,       724,
   47.9313,       722,
   47.9515,       696,
   47.9716,       709,
   47.9918,       747,
    48.012,       718,
   48.0322,       692,
   48.0523,       772,
   48.0725,       749,
   48.0927,       717,
   48.1128,       737,
    48.133,       688,
   48.1532,       770,
   48.1733,       791,
   48.1935,       715,
   48.2137,       705,
   48.2338,       774,
    48.254,       767,
   48.2742,       764,
   48.2943,       731,
   48.3145,       717,
   48.3347,       743,
   48.3548,       712,
    48.375,       774,
   48.3952,       735,
   48.4154,       779,
   48.4355,       751,
   48.4557,       766,
   48.4759,       753,
    48.496,       780,
   48.5162,       715,
   48.5364,       734,
   48.5565,       752,
   48.5767,       751,
   48.5969,       728,
    48.617,       741,
   48.6372,       740,
   48.6574,       783,
   48.6775,       727,
   48.6977,       726,
   48.7179,       739,
    48.738,       742,
   48.7582,       793,
   48.7784,       787,
   48.7986,       723,
   48.8187,       778,
   48.8389,       819,
   48.8591,       768,
   48.8792,       773,
   48.8994,       754,
   48.9196,       762,
   48.9397,       774,
   48.9599,       831,
   48.9801,       805,
   49.0002,       816,
   49.0204,       826,
   49.0406,       795,
   49.0607,       833,
   49.0809,       799,
   49.1011,       849,
   49.1213,       799,
   49.1414,       884,
   49.1616,       859,
   49.1818,       886,
   49.2019,       889,
   49.2221,       874,
   49.2423,       916,
   49.2624,       896,
   49.2826,       938,
   49.3028,       887,
   49.3229,       926,
   49.3431,       932,
   49.3633,       932,
   49.3834,       979,
   49.4036,       972,
   49.4238,      1048,
   49.4439,      1054,
   49.4641,      1111,
   49.4843,      1120,
   49.5045,      1153,
   49.5246,      1179,
   49.5448,      1205,
    49.565,      1298,
   49.5851,      1260,
   49.6053,      1364,
   49.6255,      1440,
   49.6456,      1486,
   49.6658,      1616,
    49.686,      1608,
   49.7061,      1793,
   49.7263,      1826,
   49.7465,      1959,
   49.7666,      2045,
   49.7868,      2142,
    49.807,      2231,
   49.8271,      2382,
   49.8473,      2442,
   49.8675,      2614,
   49.8877,      2740,
   49.9078,      2906,
    49.928,      3062,
   49.9482,      3251,
   49.9683,      3305,
   49.9885,      3436,
   50.0087,      3510,
   50.0288,      3555,
    50.049,      3544,
   50.0692,      3495,
   50.0893,      3415,
   50.1095,      3219,
   50.1297,      3253,
   50.1498,      3058,
     50.17,      3017,
   50.1902,      2847,
   50.2104,      2751,
   50.2305,      2641,
   50.2507,      2366,
   50.2709,      2293,
    50.291,      2136,
   50.3112,      2070,
   50.3314,      1812,
   50.3515,      1800,
   50.3717,      1712,
   50.3919,      1710,
    50.412,      1566,
   50.4322,      1517,
   50.4524,      1414,
   50.4725,      1408,
   50.4927,      1308,
   50.5129,      1291,
    50.533,      1194,
   50.5532,      1146,
   50.5734,      1136,
   50.5936,      1119,
   50.6137,      1027,
   50.6339,      1009,
   50.6541,       992,
   50.6742,       979,
   50.6944,       979,
   50.7146,       987,
   50.7347,       874,
   50.7549,       866,
   50.7751,       920,
   50.7952,       888,
   50.8154,       835,
   50.8356,       773,
   50.8557,       798,
   50.8759,       874,
   50.8961,       812,
   50.9163,       817,
   50.9364,       762,
   50.9566,       778,
   50.9768,       760,
   50.9969,       754,
   51.0171,       766,
   51.0373,       803,
   51.0574,       733,
   51.0776,       719,
   51.0978,       748,
   51.1179,       711,
   51.1381,       763,
   51.1583,       707,
   51.1784,       732,
   51.1986,       717,
   51.2188,       743,
   51.2389,       721,
   51.2591,       738,
   51.2793,       706,
   51.2995,       682,
   51.3196,       712,
   51.3398,       729,
     51.36,       734,
   51.3801,       679,
   51.4003,       682,
   51.4205,       682,
   51.4406,       739,
   51.4608,       696,
    51.481,       683,
   51.5011,       698,
   51.5213,       642,
   51.5415,       701,
   51.5616,       690,
   51.5818,       709,
    51.602,       705,
   51.6221,       667,
   51.6423,       666,
   51.6625,       632,
   51.6827,       703,
   51.7028,       728,
    51.723,       719,
   51.7432,       702,
   51.7633,       709,
   51.7835,       682,
   51.8037,       689,
   51.8238,       676,
    51.844,       673,
   51.8642,       645,
   51.8843,       701,
   51.9045,       676,
   51.9247,       657,
   51.9448,       624,
    51.965,       652,
   51.9852,       708,
   52.0054,       641,
   52.0255,       654,
   52.0457,       634,
   52.0659,       656,
    52.086,       656,
   52.1062,       647,
   52.1264,       656,
   52.1465,       705,
   52.1667,       661,
   52.1869,       677,
    52.207,       594,
   52.2272,       725,
   52.2474,       653,
   52.2675,       671,
   52.2877,       692,
   52.3079,       666,
    52.328,       629,
   52.3482,       677,
   52.3684,       673,
   52.3886,       703,
   52.4087,       652,
   52.4289,       671,
   52.4491,       618,
   52.4692,       602,
   52.4894,       665,
   52.5096,       629,
   52.5297,       645,
   52.5499,       695,
   52.5701,       641,
   52.5902,       671,
   52.6104,       657,
   52.6306,       635,
   52.6507,       679,
   52.6709,       647,
   52.6911,       696,
   52.7112,       618,
   52.7314,       663,
   52.7516,       624,
   52.7718,       648,
   52.7919,       652,
   52.8121,       658,
   52.8323,       665,
   52.8524,       604,
   52.8726,       667,
   52.8928,       669,
   52.9129,       617,
   52.9331,       634,
   52.9533,       633,
   52.9734,       631,
   52.9936,       610,
   53.0138,       659,
   53.0339,       665,
   53.0541,       626,
   53.0743,       628,
   53.0945,       586,
   53.1146,       609,
   53.1348,       616,
    53.155,       628,
   53.1751,       649,
   53.1953,       672,
   53.2155,       653,
   53.2356,       642,
   53.2558,       681,
    53.276,       600,
   53.2961,       622,
   53.3163,       654,
   53.3365,       636,
   53.3566,       639,
   53.3768,       606,
    53.397,       657,
   53.4171,       652,
   53.4373,       653,
   53.4575,       651,
   53.4777,       579,
   53.4978,       656,
    53.518,       656,
   53.5382,       635,
   53.5583,       655,
   53.5785,       646,
   53.5987,       633,
   53.6188,       664,
    53.639,       647,
   53.6592,       678,
   53.6793,       626,
   53.6995,       695,
   53.7197,       604,
   53.7398,       647,
     53.76,       591,
   53.7802,       616,
   53.8003,       661,
   53.8205,       664,
   53.8407,       610,
   53.8609,       643,
    53.881,       616,
   53.9012,       628,
   53.9214,       616,
   53.9415,       617,
   53.9617,       620,
   53.9819,       613,
    54.002,       614,
   54.0222,       632,
   54.0424,       669,
   54.0625,       632,
   54.0827,       616,
   54.1029,       628,
    54.123,       646,
   54.1432,       621,
   54.1634,       643,
   54.1836,       606,
   54.2037,       633,
   54.2239,       634,
   54.2441,       637,
   54.2642,       651,
   54.2844,       658,
   54.3046,       617,
   54.3247,       622,
   54.3449,       644,
   54.3651,       657,
   54.3852,       657,
   54.4054,       608,
   54.4256,       649,
   54.4457,       594,
   54.4659,       585,
   54.4861,       629,
   54.5062,       597,
   54.5264,       609,
   54.5466,       665,
   54.5668,       605,
   54.5869,       622,
   54.6071,       616,
   54.6273,       645,
   54.6474,       628,
   54.6676,       624,
   54.6878,       634,
   54.7079,       639,
   54.7281,       626,
   54.7483,       628,
   54.7684,       645,
   54.7886,       630,
   54.8088,       610,
   54.8289,       558,
   54.8491,       610,
   54.8693,       612,
   54.8894,       628,
   54.9096,       628,
   54.9298,       643,
     54.95,       643,
   54.9701,       614,
   54.9903,       619,
   55.0105,       652,
   55.0306,       605,
   55.0508,       621,
    55.071,       639,
   55.0911,       651,
   55.1113,       655,
   55.1315,       654,
   55.1516,       585,
   55.1718,       564,
    55.192,       659,
   55.2121,       589,
   55.2323,       613,
   55.2525,       589,
   55.2727,       583,
   55.2928,       646,
    55.313,       614,
   55.3332,       660,
   55.3533,       650,
   55.3735,       609,
   55.3937,       620,
   55.4138,       658,
    55.434,       595,
   55.4542,       632,
   55.4743,       615,
   55.4945,       642,
   55.5147,       618,
   55.5348,       587,
    55.555,       593,
   55.5752,       623,
   55.5953,       642,
   55.6155,       602,
   55.6357,       656,
   55.6559,       686,
    55.676,       584,
   55.6962,       663,
   55.7164,       608,
   55.7365,       627,
   55.7567,       591,
   55.7769,       592,
    55.797,       643,
   55.8172,       657,
   55.8374,       602,
   55.8575,       574,
   55.8777,       619,
   55.8979,       621,
    55.918,       640,
   55.9382,       631,
   55.9584,       574,
   55.9786,       658,
   55.9987,       624,
   56.0189,       609,
   56.0391,       593,
   56.0592,       539,
   56.0794,       640,
   56.0996,       646,
   56.1197,       614,
   56.1399,       643,
   56.1601,       592,
   56.1802,       625,
   56.2004,       581,
   56.2206,       620,
   56.2407,       586,
   56.2609,       602,
   56.2811,       556,
   56.3012,       603,
   56.3214,       597,
   56.3416,       583,
   56.3618,       624,
   56.3819,       613,
   56.4021,       601,
   56.4223,       583,
   56.4424,       599,
   56.4626,       624,
   56.4828,       594,
   56.5029,       598,
   56.5231,       611,
   56.5433,       646,
   56.5634,       633,
   56.5836,       595,
   56.6038,       608,
   56.6239,       581,
   56.6441,       605,
   56.6643,       595,
   56.6844,       619,
   56.7046,       600,
   56.7248,       631,
    56.745,       588,
   56.7651,       575,
   56.7853,       608,
   56.8055,       581,
   56.8256,       623,
   56.8458,       609,
    56.866,       601,
   56.8861,       669,
   56.9063,       592,
   56.9265,       587,
   56.9466,       631,
   56.9668,       622,
    56.987,       583,
   57.0071,       592,
   57.0273,       607,
   57.0475,       626,
   57.0677,       626,
   57.0878,       593,
    57.108,       586,
   57.1282,       635,
   57.1483,       600,
   57.1685,       605,
   57.1887,       603,
   57.2088,       589,
    57.229,       636,
   57.2492,       583,
   57.2693,       612,
   57.2895,       565,
   57.3097,       598,
   57.3298,       610,
     57.35,       642,
   57.3702,       615,
   57.3903,       614,
   57.4105,       592,
   57.4307,       568,
   57.4509,       581,
    57.471,       630,
   57.4912,       581,
   57.5114,       595,
   57.5315,       582,
   57.5517,       616,
   57.5719,       593,
    57.592,       615,
   57.6122,       597,
   57.6324,       583,
   57.6525,       598,
   57.6727,       610,
   57.6929,       602,
    57.713,       611,
   57.7332,       605,
   57.7534,       594,
   57.7735,       604,
   57.7937,       636,
   57.8139,       619,
   57.8341,       593,
   57.8542,       612,
   57.8744,       615,
   57.8946,       591,
   57.9147,       556,
   57.9349,       606,
   57.9551,       611,
   57.9752,       639,
   57.9954,       588,
   58.0156,       625,
   58.0357,       560,
   58.0559,       600,
   58.0761,       615,
   58.0962,       603,
   58.1164,       598,
   58.1366,       583,
   58.1568,       582,
   58.1769,       583,
   58.1971,       591,
   58.2173,       618,
   58.2374,       597,
   58.2576,       625,
   58.2778,       571,
   58.2979,       609,
   58.3181,       591,
   58.3383,       596,
   58.3584,       597,
   58.3786,       613,
   58.3988,       590,
   58.4189,       591,
   58.4391,       593,
   58.4593,       630,
   58.4794,       593,
   58.4996,       581,
   58.5198,       582,
     58.54,       562,
   58.5601,       574,
   58.5803,       629,
   58.6005,       539,
   58.6206,       638,
   58.6408,       568,
    58.661,       571,
   58.6811,       595,
   58.7013,       572,
   58.7215,       571,
   58.7416,       561,
   58.7618,       595,
    58.782,       638,
   58.8021,       644,
   58.8223,       595,
   58.8425,       581,
   58.8626,       595,
   58.8828,       588,
    58.903,       569,
   58.9232,       601,
   58.9433,       613,
   58.9635,       596,
   58.9837,       606,
   59.0038,       652,
    59.024,       541,
   59.0442,       619,
   59.0643,       587,
   59.0845,       603,
   59.1047,       557,
   59.1248,       596,
    59.145,       582,
   59.1652,       582,
   59.1853,       578,
   59.2055,       633,
   59.2257,       603,
   59.2459,       615,
    59.266,       575,
   59.2862,       595,
   59.3064,       562,
   59.3265,       622,
   59.3467,       577,
   59.3669,       574,
    59.387,       592,
   59.4072,       601,
   59.4274,       588,
   59.4475,       597,
   59.4677,       599,
   59.4879,       582,
    59.508,       603,
   59.5282,       600,
   59.5484,       621,
   59.5685,       560,
   59.5887,       615,
   59.6089,       602,
   59.6291,       629,
   59.6492,       581,
   59.6694,       599,
   59.6896,       616,
   59.7097,       588,
   59.7299,       624,
   59.7501,       551,
   59.7702,       569,
   59.7904,       595,
   59.8106,       586,
   59.8307,       589,
   59.8509,       603,
   59.8711,       583,
   59.8912,       561,
   59.9114,       600,
   59.9316,       543,
   59.9517,       568,
   59.9719,       617,
   59.9921,       588,
   60.0123,       591,
   60.0324,       581,
   60.0526,       577,
   60.0728,       583,
   60.0929,       545,
   60.1131,       579,
   60.1333,       573,
   60.1534,       560,
   60.1736,       575,
   60.1938,       637,
   60.2139,       544,
   60.2341,       595,
   60.2543,       621,
   60.2744,       600,
   60.2946,       586,
   60.3148,       590,
    60.335,       580,
   60.3551,       602,
   60.3753,       637,
   60.3955,       547,
   60.4156,       596,
   60.4358,       521,
    60.456,       548,
   60.4761,       576,
   60.4963,       544,
   60.5165,       562,
   60.5366,       566,
   60.5568,       609,
    60.577,       606,
   60.5971,       583,
   60.6173,       571,
   60.6375,       584,
   60.6576,       537,
   60.6778,       599,
    60.698,       596,
   60.7182,       620,
   60.7383,       564,
   60.7585,       633,
   60.7787,       601,
   60.7988,       570,
    60.819,       535,
   60.8392,       583,
   60.8593,       596,
   60.8795,       589,
   60.8997,       606,
   60.9198,       610,
     60.94,       610,
   60.9602,       596,
   60.9803,       553,
   61.0005,       569,
   61.0207,       604,
   61.0409,       566,
    61.061,       613,
   61.0812,       583,
   61.1014,       627,
   61.1215,       547,
   61.1417,       554,
   61.1619,       601,
    61.182,       573,
   61.2022,       619,
   61.2224,       601,
   61.2425,       622,
   61.2627,       604,
   61.2829,       582,
    61.303,       571,
   61.3232,       576,
   61.3434,       655,
   61.3635,       568,
   61.3837,       601,
   61.4039,       574,
   61.4241,       577,
   61.4442,       574,
   61.4644,       542,
   61.4846,       568,
   61.5047,       558,
   61.5249,       613,
   61.5451,       552,
   61.5652,       583,
   61.5854,       616,
   61.6056,       584,
   61.6257,       570,
   61.6459,       582,
   61.6661,       541,
   61.6862,       623,
   61.7064,       552,
   61.7266,       586,
   61.7467,       570,
   61.7669,       592,
   61.7871,       573,
   61.8073,       557,
   61.8274,       567,
   61.8476,       571,
   61.8678,       552,
   61.8879,       587,
   61.9081,       557,
   61.9283,       556,
   61.9484,       585,
   61.9686,       576,
   61.9888,       610,
   62.0089,       594,
   62.0291,       588,
   62.0493,       613,
   62.0694,       575,
   62.0896,       588,
   62.1098,       654,
     62.13,       595,
   62.1501,       598,
   62.1703,       570,
   62.1905,       554,
   62.2106,       547,
   62.2308,       620,
    62.251,       583,
   62.2711,       591,
   62.2913,       592,
   62.3115,       599,
   62.3316,       573,
   62.3518,       571,
    62.372,       564,
   62.3921,       563,
   62.4123,       576,
   62.4325,       576,
   62.4526,       591,
   62.4728,       541,
    62.493,       597,
   62.5132,       558,
   62.5333,       597,
   62.5535,       590,
   62.5737,       577,
   62.5938,       592,
    62.614,       552,
   62.6342,       568,
   62.6543,       560,
   62.6745,       584,
   62.6947,       523,
   62.7148,       592,
    62.735,       596,
   62.7552,       597,
   62.7753,       577,
   62.7955,       592,
   62.8157,       589,
   62.8358,       554,
    62.856,       556,
   62.8762,       505,
   62.8964,       578,
   62.9165,       593,
   62.9367,       582,
   62.9569,       586,
    62.977,       548,
   62.9972,       551,
   63.0174,       602,
   63.0375,       629,
   63.0577,       569,
   63.0779,       569,
    63.098,       603,
   63.1182,       581,
   63.1384,       563,
   63.1585,       549,
   63.1787,       556,
   63.1989,       576,
   63.2191,       610,
   63.2392,       572,
   63.2594,       625,
   63.2796,       597,
   63.2997,       559,
   63.3199,       573,
   63.3401,       575,
   63.3602,       549,
   63.3804,       559,
   63.4006,       560,
   63.4207,       557,
   63.4409,       595,
   63.4611,       582,
   63.4812,       572,
   63.5014,       620,
   63.5216,       581,
   63.5417,       604,
   63.5619,       611,
   63.5821,       593,
   63.6023,       580,
   63.6224,       562,
   63.6426,       583,
   63.6628,       549,
   63.6829,       588,
   63.7031,       569,
   63.7233,       586,
   63.7434,       576,
   63.7636,       616,
   63.7838,       582,
   63.8039,       609,
   63.8241,       563,
   63.8443,       556,
   63.8644,       624,
   63.8846,       570,
   63.9048,       549,
   63.9249,       552,
   63.9451,       551,
   63.9653,       556,
   63.9855,       552,
   64.0056,       558,
   64.0258,       569,
    64.046,       583,
   64.0661,       586,
   64.0863,       568,
   64.1065,       551,
   64.1266,       566,
   64.1468,       580,
    64.167,       555,
   64.1871,       542,
   64.2073,       600,
   64.2275,       579,
   64.2476,       568,
   64.2678,       592,
    64.288,       578,
   64.3082,       609,
   64.3283,       541,
   64.3485,       563,
   64.3687,       566,
   64.3888,       562,
    64.409,       564,
   64.4292,       611,
   64.4493,       578,
   64.4695,       608,
   64.4897,       603,
   64.5098,       573,
     64.53,       573,
   64.5502,       567,
   64.5703,       590,
   64.5905,       572,
   64.6107,       581,
   64.6308,       535,
    64.651,       550,
   64.6712,       558,
   64.6914,       607,
   64.7115,       569,
   64.7317,       573,
   64.7519,       576,
    64.772,       603,
   64.7922,       580,
   64.8124,       545,
   64.8325,       593,
   64.8527,       579,
   64.8729,       597,
    64.893,       562,
   64.9132,       565,
   64.9334,       555,
   64.9535,       572,
   64.9737,       586,
   64.9939,       543,
    65.014,       569,
   65.0342,       570,
   65.0544,       597,
   65.0746,       569,
   65.0947,       585,
   65.1149,       573,
   65.1351,       581,
   65.1552,       566,
   65.1754,       566,
   65.1956,       593,
   65.2157,       558,
   65.2359,       553,
   65.2561,       572,
   65.2762,       583,
   65.2964,       544,
   65.3166,       581,
   65.3367,       565,
   65.3569,       570,
   65.3771,       582,
   65.3973,       579,
   65.4174,       561,
   65.4376,       614,
   65.4578,       608,
   65.4779,       602,
   65.4981,       571,
   65.5183,       559,
   65.5384,       540,
   65.5586,       551,
   65.5788,       563,
   65.5989,       530,
   65.6191,       566,
   65.6393,       575,
   65.6594,       583,
   65.6796,       570,
   65.6998,       598,
   65.7199,       552,
   65.7401,       581,
   65.7603,       591,
   65.7805,       585,
   65.8006,       533,
   65.8208,       573,
    65.841,       543,
   65.8611,       578,
   65.8813,       582,
   65.9015,       629,
   65.9216,       521,
   65.9418,       547,
    65.962,       575,
   65.9821,       611,
   66.0023,       546,
   66.0225,       563,
   66.0426,       568,
   66.0628,       537,
    66.083,       588,
   66.1032,       546,
   66.1233,       530,
   66.1435,       560,
   66.1637,       571,
   66.1838,       649,
    66.204,       576,
   66.2242,       570,
   66.2443,       590,
   66.2645,       592,
   66.2847,       574,
   66.3048,       580,
    66.325,       586,
   66.3452,       563,
   66.3653,       608,
   66.3855,       550,
   66.4057,       569,
   66.4258,       589,
    66.446,       566,
   66.4662,       602,
   66.4864,       567,
   66.5065,       605,
   66.5267,       603,
   66.5469,       537,
    66.567,       593,
   66.5872,       514,
   66.6074,       605,
   66.6275,       577,
   66.6477,       555,
   66.6679,       563,
    66.688,       557,
   66.7082,       574,
   66.7284,       578,
   66.7485,       592,
   66.7687,       554,
   66.7889,       541,
    66.809,       540,
   66.8292,       547,
   66.8494,       558,
   66.8696,       533,
   66.8897,       580,
   66.9099,       594,
   66.9301,       550,
   66.9502,       565,
   66.9704,       588,
   66.9906,       555,
   67.0107,       545,
   67.0309,       557,
   67.0511,       595,
   67.0712,       552,
   67.0914,       632,
   67.1116,       587,
   67.1317,       525,
   67.1519,       568,
   67.1721,       560,
   67.1923,       608,
   67.2124,       594,
   67.2326,       614,
   67.2528,       564,
   67.2729,       573,
   67.2931,       607,
   67.3133,       608,
   67.3334,       553,
   67.3536,       576,
   67.3738,       609,
   67.3939,       597,
   67.4141,       584,
   67.4343,       548,
   67.4544,       532,
   67.4746,       650,
   67.4948,       549,
   67.5149,       571,
   67.5351,       574,
   67.5553,       564,
   67.5755,       568,
   67.5956,       517,
   67.6158,       530,
    67.636,       553,
   67.6561,       555,
   67.6763,       588,
   67.6965,       587,
   67.7166,       563,
   67.7368,       544,
    67.757,       572,
   67.7771,       555,
   67.7973,       564,
   67.8175,       560,
   67.8376,       573,
   67.8578,       525,
    67.878,       582,
   67.8981,       617,
   67.9183,       593,
   67.9385,       556,
   67.9587,       602,
   67.9788,       534,
    67.999,       549,
   68.0192,       518,
   68.0393,       534,
   68.0595,       543,
   68.0797,       590,
   68.0998,       576,
     68.12,       540,
   68.1402,       580,
   68.1603,       580,
   68.1805,       537,
   68.2007,       577,
   68.2208,       560,
    68.241,       619,
   68.2612,       608,
   68.2814,       543,
   68.3015,       557,
   68.3217,       574,
   68.3419,       585,
    68.362,       560,
   68.3822,       587,
   68.4024,       610,
   68.4225,       541,
   68.4427,       581,
   68.4629,       600,
    68.483,       566,
   68.5032,       577,
   68.5234,       569,
   68.5435,       625,
   68.5637,       579,
   68.5839,       572,
    68.604,       601,
   68.6242,       586,
   68.6444,       573,
   68.6646,       574,
   68.6847,       563,
   68.7049,       631,
   68.7251,       556,
   68.7452,       569,
   68.7654,       579,
   68.7856,       541,
   68.8057,       604,
   68.8259,       572,
   68.8461,       593,
   68.8662,       586,
   68.8864,       588,
   68.9066,       590,
   68.9267,       569,
   68.9469,       620,
   68.9671,       597,
   68.9872,       560,
   69.0074,       572,
   69.0276,       558,
   69.0478,       562,
   69.0679,       564,
   69.0881,       589,
   69.1083,       554,
   69.1284,       561,
   69.1486,       617,
   69.1688,       599,
   69.1889,       580,
   69.2091,       603,
   69.2293,       549,
   69.2494,       554,
   69.2696,       599,
   69.2898,       550,
   69.3099,       590,
   69.3301,       545,
   69.3503,       545,
   69.3705,       564,
   69.3906,       536,
   69.4108,       585,
    69.431,       541,
   69.4511,       566,
   69.4713,       564,
   69.4915,       615,
   69.5116,       640,
   69.5318,       592,
    69.552,       586,
   69.5721,       556,
   69.5923,       570,
   69.6125,       563,
   69.6326,       599,
   69.6528,       585,
    69.673,       583,
   69.6931,       579,
   69.7133,       558,
   69.7335,       568,
   69.7537,       560,
   69.7738,       548,
    69.794,       524,
   69.8142,       633,
   69.8343,       629,
   69.8545,       590,
   69.8747,       575,
   69.8948,       587,
    69.915,       637,
   69.9352,       566,
   69.9553,       605,
   69.9755,       561,
   69.9957,       580,
   70.0158,       561,
    70.036,       600,
   70.0562,       617,
   70.0763,       559,
   70.0965,       541,
   70.1167,       565,
   70.1369,       556,
    70.157,       597,
   70.1772,       586,
   70.1974,       565,
   70.2175,       587,
   70.2377,       581,
   70.2579,       586,
    70.278,       570,
   70.2982,       544,
   70.3184,       508,
   70.3385,       585,
   70.3587,       548,
   70.3789,       547,
    70.399,       580,
   70.4192,       564,
   70.4394,       554,
   70.4596,       545,
   70.4797,       587,
   70.4999,       617,
   70.5201,       565,
   70.5402,       584,
   70.5604,       569,
   70.5806,       575,
   70.6007,       564,
   70.6209,       579,
   70.6411,       587,
   70.6612,       567,
   70.6814,       579,
   70.7016,       559,
   70.7217,       569,
   70.7419,       531,
   70.7621,       509,
   70.7822,       594,
   70.8024,       556,
   70.8226,       580,
   70.8428,       597,
   70.8629,       589,
   70.8831,       622,
   70.9033,       613,
   70.9234,       598,
   70.9436,       609,
   70.9638,       571,
   70.9839,       577,
   71.0041,       562,
   71.0243,       565,
   71.0444,       580,
   71.0646,       581,
   71.0848,       563,
   71.1049,       572,
   71.1251,       580,
   71.1453,       535,
   71.1654,       568,
   71.1856,       560,
   71.2058,       555,
    71.226,       578,
   71.2461,       576,
   71.2663,       587,
   71.2865,       547,
   71.3066,       563,
   71.3268,       603,
    71.347,       581,
   71.3671,       521,
   71.3873,       608,
   71.4075,       592,
   71.4276,       591,
   71.4478,       559,
    71.468,       537,
   71.4881,       595,
   71.5083,       596,
   71.5285,       542,
   71.5487,       632,
   71.5688,       573,
    71.589,       534,
   71.6092,       576,
   71.6293,       545,
   71.6495,       563,
   71.6697,       591,
   71.6898,       585,
     71.71,       573,
   71.7302,       611,
   71.7503,       600,
   71.7705,       621,
   71.7907,       603,
   71.8108,       543,
    71.831,       638,
   71.8512,       571,
   71.8713,       588,
   71.8915,       605,
   71.9117,       600,
   71.9319,       578,
    71.952,       567,
   71.9722,       593,
   71.9924,       553,
   72.0125,       560,
   72.0327,       600,
   72.0529,       612,
    72.073,       588,
   72.0932,       582,
   72.1134,       604,
   72.1335,       565,
   72.1537,       559,
   72.1739,       608,
    72.194,       589,
   72.2142,       565,
   72.2344,       542,
   72.2546,       640,
   72.2747,       626,
   72.2949,       579,
   72.3151,       539,
   72.3352,       605,
   72.3554,       609,
   72.3756,       598,
   72.3957,       616,
   72.4159,       612,
   72.4361,       566,
   72.4562,       618,
   72.4764,       581,
   72.4966,       591,
   72.5167,       542,
   72.5369,       621,
   72.5571,       543,
   72.5772,       535,
   72.5974,       603,
   72.6176,       581,
   72.6378,       553,
   72.6579,       538,
   72.6781,       588,
   72.6983,       582,
   72.7184,       600,
   72.7386,       606,
   72.7588,       599,
   72.7789,       619,
   72.7991,       637,
   72.8193,       589,
   72.8394,       526,
   72.8596,       617,
   72.8798,       589,
   72.8999,       628,
   72.9201,       614,
   72.9403,       556,
   72.9604,       638,
   72.9806,       649,
   73.0008,       620,
    73.021,       659,
   73.0411,       645,
   73.0613,       627,
   73.0815,       629,
   73.1016,       610,
   73.1218,       665,
    73.142,       707,
   73.1621,       714,
   73.1823,       653,
   73.2025,       699,
   73.2226,       670,
   73.2428,       724,
    73.263,       747,
   73.2831,       763,
   73.3033,       771,
   73.3235,       701,
   73.3437,       796,
   73.3638,       758,
    73.384,       787,
   73.4042,       787,
   73.4243,       908,
   73.4445,       876,
   73.4647,       859,
   73.4848,       925,
    73.505,       915,
   73.5252,       966,
   73.5453,      1067,
   73.5655,      1030,
   73.5857,      1094,
   73.6058,      1182,
    73.626,      1197,
   73.6462,      1265,
   73.6663,      1448,
   73.6865,      1602,
   73.7067,      1773,
   73.7269,      2027,
    73.747,      2059,
   73.7672,      1851,
   73.7874,      1686,
   73.8075,      1499,
   73.8277,      1455,
   73.8479,      1393,
    73.868,      1387,
   73.8882,      1352,
   73.9084,      1443,
   73.9285,      1471,
   73.9487,      1544,
   73.9689,      1453,
    73.989,      1346,
   74.0092,      1270,
   74.0294,      1190,
   74.0495,      1131,
   74.0697,       988,
   74.0899,       989,
   74.1101,       919,
   74.1302,       864,
   74.1504,       870,
   74.1706,       855,
   74.1907,       836,
   74.2109,       789,
   74.2311,       781,
   74.2512,       730,
   74.2714,       701,
   74.2916,       763,
   74.3117,       719,
   74.3319,       724,
   74.3521,       738,
   74.3722,       686,
   74.3924,       685,
   74.4126,       662,
   74.4328,       647,
   74.4529,       601,
   74.4731,       647,
   74.4933,       681,
   74.5134,       652,
   74.5336,       625,
   74.5538,       646,
   74.5739,       615,
   74.5941,       596,
   74.6143,       608,
   74.6344,       616,
   74.6546,       626,
   74.6748,       609,
   74.6949,       643,
   74.7151,       623,
   74.7353,       635,
   74.7554,       630,
   74.7756,       588,
   74.7958,       582,
    74.816,       667,
   74.8361,       607,
   74.8563,       635,
   74.8765,       613,
   74.8966,       570,
   74.9168,       574,
    74.937,       638,
   74.9571,       586,
   74.9773,       568,
   74.9975,       579,
   75.0176,       622,
   75.0378,       566,
    75.058,       589,
   75.0781,       601,
   75.0983,       599,
   75.1185,       575,
   75.1386,       581,
   75.1588,       585,
    75.179,       642,
   75.1992,       575,
   75.2193,       508,
   75.2395,       571,
   75.2597,       581,
   75.2798,       569,
      75.3,       616,
   75.3202,       599,
   75.3403,       598,
   75.3605,       583,
   75.3807,       580,
   75.4008,       635,
    75.421,       570,
   75.4412,       596,
   75.4613,       607,
   75.4815,       599,
   75.5017,       586,
   75.5219,       571,
    75.542,       548,
   75.5622,       587,
   75.5824,       590,
   75.6025,       567,
   75.6227,       553,
   75.6429,       560,
    75.663,       603,
   75.6832,       595,
   75.7034,       607,
   75.7235,       598,
   75.7437,       596,
   75.7639,       579,
    75.784,       592,
   75.8042,       593,
   75.8244,       579,
   75.8445,       587,
   75.8647,       595,
   75.8849,       589,
   75.9051,       620,
   75.9252,       622,
   75.9454,       570,
   75.9656,       626,
   75.9857,       509,
   76.0059,       580,
   76.0261,       543,
   76.0462,       591,
   76.0664,       571,
   76.0866,       593,
   76.1067,       510,
   76.1269,       551,
   76.1471,       612,
   76.1672,       589,
   76.1874,       588,
   76.2076,       573,
   76.2277,       524,
   76.2479,       576,
   76.2681,       578,
   76.2883,       586,
   76.3084,       577,
   76.3286,       552,
   76.3488,       574,
   76.3689,       580,
   76.3891,       577,
   76.4093,       577,
   76.4294,       587,
   76.4496,       601,
   76.4698,       578,
   76.4899,       565,
   76.5101,       556,
   76.5303,       596,
   76.5504,       543,
   76.5706,       583,
   76.5908,       578,
    76.611,       567,
   76.6311,       581,
   76.6513,       547,
   76.6715,       549,
   76.6916,       578,
   76.7118,       556,
    76.732,       548,
   76.7521,       586,
   76.7723,       576,
   76.7925,       585,
   76.8126,       553,
   76.8328,       596,
    76.853,       574,
   76.8731,       555,
   76.8933,       580,
   76.9135,       553,
   76.9336,       550,
   76.9538,       546,
    76.974,       599,
   76.9942,       553,
   77.0143,       529,
   77.0345,       582,
   77.0547,       577,
   77.0748,       549,
    77.095,       585,
   77.1152,       531,
   77.1353,       585,
   77.1555,       547,
   77.1757,       593,
   77.1958,       570,
    77.216,       566,
   77.2362,       580,
   77.2563,       572,
   77.2765,       565,
   77.2967,       553,
   77.3169,       553,
    77.337,       571,
   77.3572,       573,
   77.3774,       564,
   77.3975,       560,
   77.4177,       544,
   77.4379,       600,
    77.458,       582,
   77.4782,       524,
   77.4984,       561,
   77.5185,       565,
   77.5387,       592,
   77.5589,       566,
    77.579,       566,
   77.5992,       573,
   77.6194,       560,
   77.6395,       595,
   77.6597,       528,
   77.6799,       565,
   77.7001,       561,
   77.7202,       615,
   77.7404,       566,
   77.7606,       541,
   77.7807,       584,
   77.8009,       583,
   77.8211,       601,
   77.8412,       518,
   77.8614,       576,
   77.8816,       602,
   77.9017,       568,
   77.9219,       549,
   77.9421,       582,
   77.9622,       604,
   77.9824,       527,
   78.0026,       570,
   78.0227,       596,
   78.0429,       551,
   78.0631,       557,
   78.0833,       544,
   78.1034,       593,
   78.1236,       592,
   78.1438,       592,
   78.1639,       555,
   78.1841,       579,
   78.2043,       562,
   78.2244,       579,
   78.2446,       606,
   78.2648,       536,
   78.2849,       537,
   78.3051,       572,
   78.3253,       576,
   78.3454,       559,
   78.3656,       583,
   78.3858,       542,
    78.406,       565,
   78.4261,       593,
   78.4463,       591,
   78.4665,       571,
   78.4866,       579,
   78.5068,       600,
    78.527,       615,
   78.5471,       558,
   78.5673,       578,
   78.5875,       565,
   78.6076,       571,
   78.6278,       524,
    78.648,       511,
   78.6681,       554,
   78.6883,       616,
   78.7085,       574,
   78.7286,       540,
   78.7488,       573,
    78.769,       562,
   78.7892,       548,
   78.8093,       560,
   78.8295,       601,
   78.8497,       573,
   78.8698,       574,
     78.89,       543,
   78.9102,       577,
   78.9303,       600,
   78.9505,       562,
   78.9707,       608,
   78.9908,       614,
    79.011,       577,
   79.0312,       594,
   79.0513,       536,
   79.0715,       574,
   79.0917,       530,
   79.1118,       593,
    79.132,       589,
   79.1522,       577,
   79.1724,       579,
   79.1925,       575,
   79.2127,       608,
   79.2329,       561,
    79.253,       555,
   79.2732,       585,
   79.2934,       575,
   79.3135,       573,
   79.3337,       569,
   79.3539,       567,
    79.374,       542,
   79.3942,       582,
   79.4144,       589,
   79.4345,       583,
   79.4547,       540,
   79.4749,       579,
   79.4951,       603,
   79.5152,       542,
   79.5354,       571,
   79.5556,       553,
   79.5757,       605,
   79.5959,       580,
   79.6161,       560,
   79.6362,       560,
   79.6564,       569,
   79.6766,       540,
   79.6967,       585,
   79.7169,       569,
   79.7371,       606,
   79.7572,       571,
   79.7774,       574,
   79.7976,       580,
   79.8177,       512,
   79.8379,       540,
   79.8581,       541,
   79.8783,       581,
   79.8984,       564,
   79.9186,       602,
   79.9388,       605,
   79.9589,       573,
   79.9791,       590,
   79.9993,       570,
   80.0194,       615,
