;RAW4.00
[RawHeader]
Date=07/09/2025
EstimatedTotalTime=545.8
FurtherDQLReading=0
HardwareIndicator=65519
MeasuredTotalTime=5.48733
MeasurementFlag=1
NumberOfMeasuredRanges=1
NumberOfRanges=1
Time=17:18:29

[VarInfo]
Type=USER
Flags=0
Value=Lab Manager

[VarInfo]
Type=SAMPLEID
Flags=0
Value=Commander Sample ID

[VarInfo]
Type=COMMENT
Flags=0
Value=

[VarInfo]
Type=UTF
Flags=0
Value=

[VarInfo]
Type=CREATOR
Flags=0
Value=V5Converter

[VarInfo]
Type=CREATOR_VERSION
Flags=0
Value=4.4.16.0

[HardwareConfiguration]
AbsorptionFactor=9999
ActivateAbsorber=0
Alpha1=1.5406
Alpha2=1.54439
AlphaAverage=1.54184
AlphaRatio=0.5
Analyzer=0
Anode=Cu
AntiScatteringSlit=9999
BeamOpticsFlags=0
Beta=1.39222
BetaRelativeIntensity=0
DeactivateAbsorber=0
DetectorSlit=9999
DivergenceSlit=9999
GoniometerControl=0
GoniometerDiameter=282
GoniometerModel=256
GoniometerStage=7
Monochromator=0
NearSampleSlit=9999
PrimarySollerSlit=9999
SampleChanger=0
SecondSollerSlit=9999
SynchronousAxis=0
ThinFilmAttachment=9999
WaveUnit=A

[RangeHeader]
ActuallyUsedLambda=1.54184
AdditionalDetectorMask=257
DataRecordLength=4
DelayTime=0
DisplayPlaneNumber=0
EstimatedScanTime=546
ExtraParametersMask=0
GeneratorCurrent=10
GeneratorVoltage=30
Increment=0.0201685
Increment3=0
NumberOfCompletedData=2481
NumberOfCounts=1
NumberOfDetectors=0
NumberOfDrives=3
NumberOfEncoderDrives=0
NumberOfMeasuredData=2481
NumberOfVaryingParameters=0
RangeStartTime=0
RotationSpeed=0
ScanMode=1
ScanType=Locked Coupled
SimulatedMeasConditions=0
SlitChangerIn=0
SmootingWidth=0
Start=30.0015
Steps=2481
SynchronousRotation=0
Time=33

[VarInfo]
Type=PSD_DISCRIM
Flags=0
Value=0.11;0.5

[VarInfo]
Type=OPTICS_V5
Flags=0
Value=H4sIAAAAAAAEAO1d63KjOhJ+Fda/zqmtBIPtXKaITzm2J+OaOHbFTnKmtrZcBORYZzC4AOey//d99hl2X2x1QViIS8C3JBN+TCaodWm6+2vUUkfS/nieW9IjcD3o2GcV5bBakYBtOCa0H84qS396oBxV/mhqF44NnTnwgdt25gvHBrbf0X1dQq1t78uzB88qM99ffJHlp6enw6faoeM+yGq1qsh/9i9HxgzM9QNoe75uG6AStjJfb1WRbqEH7y1wpc/BWWXFR0joAM9w4cInL/Bj4UHLsSW+3oXrLBc9NBZ6t3Pgojcb3P8FDH+o+7OzitwBj9AAMt+CrxUfl1Lblu55QRehTORzoM8XqLDt2L4ObeBy/coBc6yHluEvdYtxoR6o1ePT02O5h8TkLue4tzhrTW2EZGjqqBswQr3oFvyXjl+9OdUtD2hyGln7c259hcAyrwHqHhq4EDFpA/KbJ8lNjfKD1ToCFipvdm00JDA1OUbR6Btwou9Ab2HpL824AjQ5tXK8m+bF4OrHhPzodEft64TGrBVWDOsoPhpP1bBWhrxWvISy1r0hIUP+4r8skMLHrm78xG8sGODQhXPdfSHkZBMMakgD9GxISBvSeHkPOIFIQeOidilHx44baRI9r5mSRmyEDSxUYBJZ3blu/xy4JnCvAfYzAL0wsdX3b8s5NVnMwIfj6+8T9KPV/l7IxHm5Jhp5z0OvBh9BE+kGCS98DAk920dCZMIVSikeHA9SJulgmhwp1bAq2ZMXfZT4B2LSAxc+QFu3ogSlwl6OWi7Ssb/0moPwnSLFGmsYPPedJdIj0qJQrgWE0MJ5JCOdEXICmjFtjmnJUA7J0tRxpRHQLUBtYA3AytxYcejGiMm4JZa46kmmLG0LrhEWBa3xcus++8A2MZDfDYZpCWdMkQKtj5nwHfcltGVFk+OFGseMJxH2qHoYWND7cnJosmJN5ku1uCnh1+H65qyTKx3Y545jAR1NEG5s6BPpdiDSG56bXcI59IlYwiKvWdVk7knrgKm+tPxb3VoCboigVyQ96CPXTshnFewlKri/oQta5l9LD8GnYEuZYx67mbHTJoqe6ZblPK0cjVCOarZnwPgJzFUVVqC1ESPOHKsWvx33pNH5Zl7erhEyxkg2xVq1lr7TdoHug6HrLIDrvzAWEyiR9/eIRfdMhLKr5fweuE21rslCEdaQRS08UPF//xMyUSUc9B0TNG8Quqbos4xMnTwz90Y+PzEHluy7tuWt5HgP/ND5vNXOHBXjLvaN2aNbYuh5A79Evm3IJvErCL6JJ23LP418rD3OPSHRTOHDEjnla/gw85sIdabECnU0BoKwUKWYS+vrz5fAfvBnTbXRwKJhj2nOjrJISkNktZevObqMVm/q5DL4SnFwGS02cm5pFninPwKqkpa1mOmKYIUieVuWOJh2nCVqyWzxf//ehzWm2Nxw9uJBQ7dIeQJnTA/KYaNePXrNFtfo7ca2MPfItOjcf/WMZelYS+paugfVBtErK9H60Ibz5bx5oBwenx4fndaUWv3kSK0pjePu32vVE4S4oAZGIvklvWZQ4W0Rs4b0UpC0Rk/7QJiajTD10yOsXjvdJsRYdyXGNhLfFkDGuto1yh6Bqz+IoV6M/ulxppzUt4kz1l2Js43EtwWcsa52jLNz4OupIMPET46w2qmqqttD2Kq7EmEbiW9jhK262jHCrvGaRirECHVXGHuvCFutth02NsJWrKMSVWsKbh08xTrZCZK+OsbSG7gQ2D5ZHRSgJJK3tspG1g4H057tH9XfH6CibEVXr/OjKbkXhfRCBYDfqOeDOWLs0nmABl3VvJn0rm5bl73OpP2tN9TkFYkJfAye/WbPftQtiMQzg4uVjCJaIvW07+CFjI1lEf6uyTEWsnm67F2lsnIJbSARW0kbWtlk6OEgY+yhA20/e3B1k8GZLoaD0auqCHeKD6S58wgk35HmwJjpNrYKCTmTxd/SeKxl8/ienF2WXefzdFk9bOTm6N5Lz546UqiqhAVciZbr3FOQY3BWIVUkVBrdJr+ZtC6H31rRcrGRhEeyyEjkXXKxo0bYURPZUVPYUbPYUQuzEywL8PxEyoQBQloib5PW7UUWe0HrokySmCrg8D78PeybkkWGzrvjVjIvuH4+FiIbUQEDqBXeyxN46LJSkY3uZbffvRqnSMV2TCAFbaXVSDlkQmfBvNq4EkHsASVZZdetcW+QpTTSOp+8YlOLgL9pYnk4ToQicvl10J4MrpMZJONJkeZyfMe6Ed+xvgA2skTfcYU8TFacvPmcsQFLZ8dr7r82tXQiP3O7dSw/voYXlO4q5vl5u6WEjcypLxqFfRNqVSHyCL4FKaFHctihVBMCjFp1f7FErbF+MBEXRsEvZLo55TW19tJ1sT+LmlpQuitTm7f2YWpolHD6sQ1TaySFsh/E0uKy2LulDZ0nkgHOmxQp25WV3aUEnW+xcHMnRJr5lluqhymm+EkWW+4491hde7Ul3ssWbV9+7YtfJA0UTQyNGXBfyVbbPA8ud74bklUw60j9YgWfilQ/I4dzraYmBmuZ2QhiKJW9qxqLdLI3h6IxR/YytzAXT1vD42MIIXVJnC4nR8cylyaJ7OZRhxZeJcCPHu2eWH2ZQFkmUJYJlGUCZZlA+fE2xcsEyvezJV4mUP6aCCsTKN8TxsoEyl8VZ2UC5XvCWZlA+ashrEygfE8IKxMoywTKMoGyTKAsEyjLBMoygbJMoCwTKMsEyjKBskygLBMoywTKMoGyTKAsEyjLBMoygbJMoHzr+KNMoCwTKD9tAiXLkUS/iumT7KzT+Cmg4tm7GScqd+cL/4UkG4arGcVOT+72h4PRhP4scnoyGTg0xcTzk2U+BzLzcGMl7XBjde+HGw8WbefceR5MR45lATfhiGNKyDjkmKsg/WbotmTQQ8ElNJZEifQE7N/XgX9k+LhXSSBnuYaE6hunwkb7FPSZfOxxRGTIPPKL8PePe2KymphYK0bAR+scevtxXAin6Q2diJrmRGpv50S+wmdgEkNlcw/RmVjQz3IliCz1U2CAaRv4kdXICV5EJGb6ELHy5h6E61FQZYr/YA2o98gntQ/sOmq5XMfxeudlE7OmVzSsTJpYMhZe0hcRy1SR/jGf/zPDjH/DR/7fA2QfErQ9hAVgol98R9I5hWWaMq5mhBds4KeJUp0oaQYcIb5mwIVtN52ZmPP5qH/5US30lx930PRnYm4HLtvZktP8/WxBxzgL44DNsuvjPeVdZqh+7nWGuODWWWeI97KTtI5vABumgB1a+LnBszXslNBZz+i3gpzt3wSirjOzGenzhQXuZgBYY/QC/KUgIkkjH65UJ0ChmfamMj+F+lCxGJtFbxiJ1dIisfpGkRjhMR6HvT9h3thLD5hkeHHgLInKwm1g17oJl16CldWVYB+fXrg3mE494KdZfesZevz3Iay2B1ceYybnbh1ywVU1LSlVPTypn6qNRkNN8LvHjcOTRv24dqQqvK8VhNAM7mETbitc+w7DEUCRgJl9i2FYh7v9roNCXwNnMmzhLkORh4SYKLFGsfsMwz42ifVFRj70nYaF9FrM/4zwzYaj4jcbRuW787sNw+F2cbvhyRss3uHlOks3wMyxzMQtgMsX+xm8pBxzcfnj6s/ujy654bCjSsOZ7olX4OYEsRyOEwezQMpa3mDWKOO8X3k4Wj2jProvYAvX6KYzLmrzl7v28CTPUlxNiU9Yi8wL0ecUu0XdWrmWfniNJk2pxn6HJHazGl4xZ9PpjyfkXwFHw4ba6R6gstmscZebgP09bgIKCIswkLYN2N/zNmAmj6JSs3YC+59rJ1Cp53Ii1c+wFVhGSkUjpbRAqXF4dHrSUJRqPWmBqqEcHldP68dqfQeB0sontAHGieA9hcKI4+SmzLSadMAw70kjnLfkkW8dVkPLMIDnOS4E3hoRE+Mi7j2jlLwRUvyl1/ekrIcPHRqtqcpiLudicNWekB9FHA7lZ+eh0Ri4qHQnkdHp3mdFwxkkShPAfO0EGXBRYgTUqKlErdE1Wb0CGJXZGHSdNqGDKCsJ1TJnP6vqMuJUZpxuDuAUxgVFpsREEgUYMFu+rxszPNBZ5WDPRwluc5pzmitr4SQ+y+l5TBQhKMMCjfMcZLfIWj48ALPjYkzSv8ZE3eHvWs9sIu2S3oNHTCEVRwtgwGnwt6KsUpyC4BLvvcgEK46DYs5u+K03mpAfRZxdFKHbnGBVi0yvQisOP5lEYfRDEPwf22IqXU7pckqXI7qcECvsd+8VLsZPznhGTjB6jZVIzZz8ZA+dc9yig6ZEJvFifFQxXo8YAd9H0PIkfi6GHAXNPKxILbzB7vVR6AbplI5NtLGOuVT/5i2e1Rn4EFu+VFtBkewhB6uqmiyUa3yqI/WAkWUTj/6JxSqYYK6D6Pv/u9RXv2COAAA=

[PSD]
ActualTwoTheta=9999
FirstUsedChannel=0
FixedPSD=0
PSDOpening=4.99171
PSDType=5

[Drive]
DriveFlags=1
DriveName=2Theta
DriveNumber=2
DriveOffset=0
OffsetIndex=0
OscillationAmplitude=0
OscillationSpeed=0
StartPosition=30.0015

[Drive]
DriveFlags=1
DriveName=Theta
DriveNumber=1
DriveOffset=0
OffsetIndex=0
OscillationAmplitude=0
OscillationSpeed=0
StartPosition=15.0007

[Drive]
DriveFlags=1
DriveName=Phi
DriveNumber=3
DriveOffset=0
OffsetIndex=0
OscillationAmplitude=0
OscillationSpeed=0
StartPosition=0

[Data]
     Angle,       PSD,
   30.0015,       697,
   30.0217,       732,
   30.0418,       644,
    30.062,       760,
   30.0822,       735,
   30.1023,       683,
   30.1225,       719,
   30.1427,       703,
   30.1628,       699,
    30.183,       710,
   30.2032,       726,
   30.2233,       737,
   30.2435,       678,
   30.2637,       732,
   30.2838,       706,
    30.304,       704,
   30.3242,       712,
   30.3444,       651,
   30.3645,       697,
   30.3847,       714,
   30.4049,       675,
    30.425,       676,
   30.4452,       719,
   30.4654,       712,
   30.4855,       700,
   30.5057,       732,
   30.5259,       772,
    30.546,       730,
   30.5662,       715,
   30.5864,       735,
   30.6065,       760,
   30.6267,       691,
   30.6469,       657,
   30.6671,       696,
   30.6872,       744,
   30.7074,       697,
   30.7276,       748,
   30.7477,       721,
   30.7679,       663,
   30.7881,       696,
   30.8082,       680,
   30.8284,       665,
   30.8486,       642,
   30.8687,       692,
   30.8889,       720,
   30.9091,       753,
   30.9292,       718,
   30.9494,       725,
   30.9696,       683,
   30.9897,       691,
   31.0099,       701,
   31.0301,       687,
   31.0503,       726,
   31.0704,       721,
   31.0906,       721,
   31.1108,       658,
   31.1309,       721,
   31.1511,       723,
   31.1713,       649,
   31.1914,       723,
   31.2116,       678,
   31.2318,       725,
   31.2519,       667,
   31.2721,       686,
   31.2923,       640,
   31.3124,       723,
   31.3326,       725,
   31.3528,       666,
   31.3729,       662,
   31.3931,       737,
   31.4133,       713,
   31.4335,       704,
   31.4536,       694,
   31.4738,       706,
    31.494,       710,
   31.5141,       682,
   31.5343,       712,
   31.5545,       726,
   31.5746,       696,
   31.5948,       657,
    31.615,       692,
   31.6351,       625,
   31.6553,       675,
   31.6755,       666,
   31.6956,       680,
   31.7158,       737,
    31.736,       716,
   31.7562,       715,
   31.7763,       709,
   31.7965,       663,
   31.8167,       706,
   31.8368,       733,
    31.857,       711,
   31.8772,       669,
   31.8973,       654,
   31.9175,       694,
   31.9377,       691,
   31.9578,       690,
    31.978,       739,
   31.9982,       676,
   32.0183,       717,
   32.0385,       717,
   32.0587,       731,
   32.0788,       717,
    32.099,       683,
   32.1192,       667,
   32.1394,       720,
   32.1595,       715,
   32.1797,       699,
   32.1999,       741,
     32.22,       703,
   32.2402,       732,
   32.2604,       701,
   32.2805,       671,
   32.3007,       659,
   32.3209,       697,
    32.341,       708,
   32.3612,       669,
   32.3814,       733,
   32.4015,       699,
   32.4217,       717,
   32.4419,       716,
    32.462,       718,
   32.4822,       714,
   32.5024,       695,
   32.5226,       657,
   32.5427,       683,
   32.5629,       731,
   32.5831,       695,
   32.6032,       702,
   32.6234,       718,
   32.6436,       747,
   32.6637,       660,
   32.6839,       717,
   32.7041,       711,
   32.7242,       717,
   32.7444,       646,
   32.7646,       685,
   32.7847,       711,
   32.8049,       691,
   32.8251,       691,
   32.8453,       730,
   32.8654,       690,
   32.8856,       711,
   32.9058,       710,
   32.9259,       711,
   32.9461,       690,
   32.9663,       675,
   32.9864,       644,
   33.0066,       709,
   33.0268,       692,
   33.0469,       613,
   33.0671,       677,
   33.0873,       692,
   33.1074,       713,
   33.1276,       718,
   33.1478,       707,
   33.1679,       663,
   33.1881,       628,
   33.2083,       685,
   33.2285,       671,
   33.2486,       679,
   33.2688,       658,
    33.289,       701,
   33.3091,       725,
   33.3293,       694,
   33.3495,       739,
   33.3696,       690,
   33.3898,       689,
     33.41,       669,
   33.4301,       714,
   33.4503,       671,
   33.4705,       703,
   33.4906,       671,
   33.5108,       692,
    33.531,       656,
   33.5511,       676,
   33.5713,       765,
   33.5915,       684,
   33.6117,       686,
   33.6318,       676,
    33.652,       683,
   33.6722,       695,
   33.6923,       670,
   33.7125,       665,
   33.7327,       695,
   33.7528,       662,
    33.773,       684,
   33.7932,       672,
   33.8133,       664,
   33.8335,       694,
   33.8537,       634,
   33.8738,       719,
    33.894,       672,
   33.9142,       683,
   33.9344,       662,
   33.9545,       617,
   33.9747,       682,
   33.9949,       699,
    34.015,       653,
   34.0352,       672,
   34.0554,       721,
   34.0755,       706,
   34.0957,       712,
   34.1159,       725,
    34.136,       665,
   34.1562,       714,
   34.1764,       672,
   34.1965,       673,
   34.2167,       723,
   34.2369,       699,
    34.257,       682,
   34.2772,       643,
   34.2974,       607,
   34.3176,       683,
   34.3377,       670,
   34.3579,       687,
   34.3781,       683,
   34.3982,       680,
   34.4184,       704,
   34.4386,       654,
   34.4587,       662,
   34.4789,       734,
   34.4991,       649,
   34.5192,       670,
   34.5394,       662,
   34.5596,       651,
   34.5797,       661,
   34.5999,       688,
   34.6201,       700,
   34.6402,       676,
   34.6604,       714,
   34.6806,       669,
   34.7008,       664,
   34.7209,       678,
   34.7411,       731,
   34.7613,       716,
   34.7814,       690,
   34.8016,       688,
   34.8218,       700,
   34.8419,       698,
   34.8621,       729,
   34.8823,       703,
   34.9024,       710,
   34.9226,       691,
   34.9428,       656,
   34.9629,       673,
   34.9831,       677,
   35.0033,       705,
   35.0235,       678,
   35.0436,       715,
   35.0638,       666,
    35.084,       681,
   35.1041,       663,
   35.1243,       676,
   35.1445,       703,
   35.1646,       641,
   35.1848,       721,
    35.205,       717,
   35.2251,       677,
   35.2453,       711,
   35.2655,       707,
   35.2856,       673,
   35.3058,       605,
    35.326,       692,
   35.3461,       687,
   35.3663,       694,
   35.3865,       639,
   35.4067,       635,
   35.4268,       715,
    35.447,       713,
   35.4672,       646,
   35.4873,       701,
   35.5075,       687,
   35.5277,       701,
   35.5478,       667,
    35.568,       648,
   35.5882,       704,
   35.6083,       658,
   35.6285,       690,
   35.6487,       685,
   35.6688,       679,
    35.689,       719,
   35.7092,       720,
   35.7294,       650,
   35.7495,       647,
   35.7697,       689,
   35.7899,       687,
     35.81,       715,
   35.8302,       670,
   35.8504,       732,
   35.8705,       685,
   35.8907,       662,
   35.9109,       666,
    35.931,       701,
   35.9512,       659,
   35.9714,       690,
   35.9915,       694,
   36.0117,       646,
   36.0319,       681,
    36.052,       682,
   36.0722,       664,
   36.0924,       688,
   36.1126,       682,
   36.1327,       663,
   36.1529,       676,
   36.1731,       660,
   36.1932,       715,
   36.2134,       678,
   36.2336,       706,
   36.2537,       684,
   36.2739,       669,
   36.2941,       670,
   36.3142,       695,
   36.3344,       668,
   36.3546,       684,
   36.3747,       704,
   36.3949,       702,
   36.4151,       681,
   36.4352,       661,
   36.4554,       654,
   36.4756,       684,
   36.4958,       672,
   36.5159,       698,
   36.5361,       683,
   36.5563,       678,
   36.5764,       723,
   36.5966,       678,
   36.6168,       658,
   36.6369,       673,
   36.6571,       674,
   36.6773,       712,
   36.6974,       671,
   36.7176,       623,
   36.7378,       682,
   36.7579,       687,
   36.7781,       678,
   36.7983,       646,
   36.8185,       704,
   36.8386,       662,
   36.8588,       701,
    36.879,       652,
   36.8991,       666,
   36.9193,       679,
   36.9395,       669,
   36.9596,       678,
   36.9798,       705,
        37,       673,
   37.0201,       675,
   37.0403,       681,
   37.0605,       647,
   37.0806,       670,
   37.1008,       710,
    37.121,       657,
   37.1411,       634,
   37.1613,       635,
   37.1815,       649,
   37.2017,       646,
   37.2218,       649,
    37.242,       726,
   37.2622,       643,
   37.2823,       686,
   37.3025,       673,
   37.3227,       690,
   37.3428,       689,
    37.363,       698,
   37.3832,       649,
   37.4033,       681,
   37.4235,       660,
   37.4437,       677,
   37.4638,       642,
    37.484,       692,
   37.5042,       653,
   37.5243,       656,
   37.5445,       680,
   37.5647,       663,
   37.5849,       647,
    37.605,       675,
   37.6252,       714,
   37.6454,       637,
   37.6655,       689,
   37.6857,       657,
   37.7059,       620,
    37.726,       658,
   37.7462,       682,
   37.7664,       638,
   37.7865,       679,
   37.8067,       652,
   37.8269,       656,
    37.847,       644,
   37.8672,       684,
   37.8874,       685,
   37.9076,       670,
   37.9277,       685,
   37.9479,       683,
   37.9681,       675,
   37.9882,       654,
   38.0084,       695,
   38.0286,       651,
   38.0487,       666,
   38.0689,       729,
   38.0891,       721,
   38.1092,       662,
   38.1294,       685,
   38.1496,       650,
   38.1697,       694,
   38.1899,       677,
   38.2101,       675,
   38.2302,       704,
   38.2504,       696,
   38.2706,       706,
   38.2908,       738,
   38.3109,       675,
   38.3311,       686,
   38.3513,       720,
   38.3714,       664,
   38.3916,       696,
   38.4118,       632,
   38.4319,       730,
   38.4521,       766,
   38.4723,       760,
   38.4924,       831,
   38.5126,       882,
   38.5328,       841,
   38.5529,       796,
   38.5731,       768,
   38.5933,       704,
   38.6134,       701,
   38.6336,       680,
   38.6538,       693,
    38.674,       694,
   38.6941,       708,
   38.7143,       692,
   38.7345,       709,
   38.7546,       670,
   38.7748,       676,
    38.795,       632,
   38.8151,       648,
   38.8353,       734,
   38.8555,       695,
   38.8756,       697,
   38.8958,       704,
    38.916,       677,
   38.9361,       662,
   38.9563,       680,
   38.9765,       670,
   38.9967,       688,
   39.0168,       709,
    39.037,       695,
   39.0572,       674,
   39.0773,       648,
   39.0975,       703,
   39.1177,       755,
   39.1378,       678,
    39.158,       709,
   39.1782,       659,
   39.1983,       703,
   39.2185,       650,
   39.2387,       717,
   39.2588,       691,
    39.279,       681,
   39.2992,       702,
   39.3193,       662,
   39.3395,       727,
   39.3597,       690,
   39.3799,       686,
      39.4,       690,
   39.4202,       698,
   39.4404,       672,
   39.4605,       652,
   39.4807,       643,
   39.5009,       761,
    39.521,       680,
   39.5412,       743,
   39.5614,       692,
   39.5815,       694,
   39.6017,       692,
   39.6219,       721,
    39.642,       718,
   39.6622,       693,
   39.6824,       677,
   39.7025,       681,
   39.7227,       686,
   39.7429,       673,
   39.7631,       676,
   39.7832,       646,
   39.8034,       685,
   39.8236,       698,
   39.8437,       700,
   39.8639,       677,
   39.8841,       731,
   39.9042,       687,
   39.9244,       711,
   39.9446,       682,
   39.9647,       692,
   39.9849,       718,
   40.0051,       754,
   40.0252,       729,
   40.0454,       634,
   40.0656,       699,
   40.0858,       712,
   40.1059,       720,
   40.1261,       673,
   40.1463,       688,
   40.1664,       697,
   40.1866,       656,
   40.2068,       683,
   40.2269,       714,
   40.2471,       675,
   40.2673,       665,
   40.2874,       681,
   40.3076,       710,
   40.3278,       695,
   40.3479,       723,
   40.3681,       696,
   40.3883,       644,
   40.4084,       677,
   40.4286,       709,
   40.4488,       705,
    40.469,       697,
   40.4891,       686,
   40.5093,       691,
   40.5295,       657,
   40.5496,       655,
   40.5698,       718,
     40.59,       733,
   40.6101,       721,
   40.6303,       702,
   40.6505,       730,
   40.6706,       696,
   40.6908,       706,
    40.711,       688,
   40.7311,       699,
   40.7513,       638,
   40.7715,       656,
   40.7917,       709,
   40.8118,       712,
    40.832,       737,
   40.8522,       663,
   40.8723,       628,
   40.8925,       696,
   40.9127,       643,
   40.9328,       707,
    40.953,       669,
   40.9732,       682,
   40.9933,       731,
   41.0135,       729,
   41.0337,       701,
   41.0538,       678,
    41.074,       711,
   41.0942,       696,
   41.1143,       675,
   41.1345,       665,
   41.1547,       690,
   41.1749,       712,
    41.195,       712,
   41.2152,       691,
   41.2354,       710,
   41.2555,       688,
   41.2757,       688,
   41.2959,       783,
    41.316,       750,
   41.3362,       820,
   41.3564,       781,
   41.3765,       858,
   41.3967,       874,
   41.4169,       876,
    41.437,       884,
   41.4572,       858,
   41.4774,       850,
   41.4975,       825,
   41.5177,       819,
   41.5379,       859,
   41.5581,       865,
   41.5782,       909,
   41.5984,       870,
   41.6186,       863,
   41.6387,       841,
   41.6589,       850,
   41.6791,       895,
   41.6992,       853,
   41.7194,       874,
   41.7396,       850,
   41.7597,       787,
   41.7799,       812,
   41.8001,       858,
   41.8202,       830,
   41.8404,       869,
   41.8606,       867,
   41.8808,       858,
   41.9009,       891,
   41.9211,       935,
   41.9413,       909,
   41.9614,       857,
   41.9816,       858,
   42.0018,       886,
   42.0219,       968,
   42.0421,       880,
   42.0623,       927,
   42.0824,       983,
   42.1026,       931,
   42.1228,       864,
   42.1429,       922,
   42.1631,       876,
   42.1833,       921,
   42.2034,       914,
   42.2236,       928,
   42.2438,       891,
    42.264,       941,
   42.2841,       915,
   42.3043,      1017,
   42.3245,       915,
   42.3446,       998,
   42.3648,      1011,
    42.385,       976,
   42.4051,      1092,
   42.4253,      1222,
   42.4455,      1166,
   42.4656,      1334,
   42.4858,      1382,
    42.506,      1485,
   42.5261,      1517,
   42.5463,      1552,
   42.5665,      1679,
   42.5866,      1681,
   42.6068,      1779,
    42.627,      1975,
   42.6472,      2153,
   42.6673,      2528,
   42.6875,      2726,
   42.7077,      2828,
   42.7278,      3033,
    42.748,      3354,
   42.7682,      4101,
   42.7883,      5851,
   42.8085,      9675,
   42.8287,     19408,
   42.8488,     38890,
    42.869,     64500,
   42.8892,     74860,
   42.9093,     54570,
   42.9295,     29264,
   42.9497,     22162,
   42.9699,     28404,
     42.99,     38049,
   43.0102,     35824,
   43.0304,     22680,
   43.0505,     10465,
   43.0707,      5530,
   43.0909,      3855,
    43.111,      2998,
   43.1312,      2500,
   43.1514,      2325,
   43.1715,      2145,
   43.1917,      1822,
   43.2119,      1789,
    43.232,      1528,
   43.2522,      1517,
   43.2724,      1407,
   43.2925,      1285,
   43.3127,      1247,
   43.3329,      1187,
   43.3531,      1127,
   43.3732,      1026,
   43.3934,      1045,
   43.4136,      1079,
   43.4337,      1010,
   43.4539,      1016,
   43.4741,      1020,
   43.4942,       951,
   43.5144,       946,
   43.5346,       974,
   43.5547,       995,
   43.5749,       915,
   43.5951,       937,
   43.6152,       908,
   43.6354,       911,
   43.6556,       880,
   43.6757,       898,
   43.6959,       856,
   43.7161,       913,
   43.7363,       916,
   43.7564,       864,
   43.7766,       893,
   43.7968,       919,
   43.8169,       880,
   43.8371,       836,
   43.8573,       823,
   43.8774,       867,
   43.8976,       834,
   43.9178,       893,
   43.9379,       821,
   43.9581,       810,
   43.9783,       806,
   43.9984,       811,
   44.0186,       804,
   44.0388,       828,
    44.059,       822,
   44.0791,       798,
   44.0993,       834,
   44.1195,       780,
   44.1396,       826,
   44.1598,       824,
     44.18,       850,
   44.2001,       811,
   44.2203,       806,
   44.2405,       786,
   44.2606,       805,
   44.2808,       835,
    44.301,       823,
   44.3211,       725,
   44.3413,       820,
   44.3615,       767,
   44.3816,       798,
   44.4018,       822,
    44.422,       761,
   44.4422,       788,
   44.4623,       776,
   44.4825,       825,
   44.5027,       797,
   44.5228,       798,
    44.543,       790,
   44.5632,       795,
   44.5833,       795,
   44.6035,       784,
   44.6237,       863,
   44.6438,       781,
    44.664,       806,
   44.6842,       786,
   44.7043,       777,
   44.7245,       776,
   44.7447,       749,
   44.7648,       850,
    44.785,       792,
   44.8052,       831,
   44.8254,       777,
   44.8455,       776,
   44.8657,       810,
   44.8859,       797,
    44.906,       790,
   44.9262,       764,
   44.9464,       808,
   44.9665,       773,
   44.9867,       787,
   45.0069,       784,
    45.027,       764,
   45.0472,       796,
   45.0674,       814,
   45.0875,       756,
   45.1077,       763,
   45.1279,       809,
   45.1481,       743,
   45.1682,       806,
   45.1884,       769,
   45.2086,       744,
   45.2287,       754,
   45.2489,       764,
   45.2691,       749,
   45.2892,       763,
   45.3094,       749,
   45.3296,       737,
   45.3497,       784,
   45.3699,       784,
   45.3901,       733,
   45.4102,       736,
   45.4304,       739,
   45.4506,       735,
   45.4707,       815,
   45.4909,       735,
   45.5111,       720,
   45.5313,       762,
   45.5514,       795,
   45.5716,       784,
   45.5918,       737,
   45.6119,       783,
   45.6321,       756,
   45.6523,       743,
   45.6724,       770,
   45.6926,       701,
   45.7128,       774,
   45.7329,       710,
   45.7531,       748,
   45.7733,       770,
   45.7934,       725,
   45.8136,       707,
   45.8338,       722,
    45.854,       735,
   45.8741,       749,
   45.8943,       711,
   45.9145,       733,
   45.9346,       727,
   45.9548,       733,
    45.975,       719,
   45.9951,       792,
   46.0153,       703,
   46.0355,       712,
   46.0556,       715,
   46.0758,       772,
    46.096,       734,
   46.1161,       759,
   46.1363,       721,
   46.1565,       827,
   46.1766,       728,
   46.1968,       709,
    46.217,       720,
   46.2372,       727,
   46.2573,       763,
   46.2775,       750,
   46.2977,       724,
   46.3178,       734,
    46.338,       746,
   46.3582,       701,
   46.3783,       719,
   46.3985,       698,
   46.4187,       746,
   46.4388,       741,
    46.459,       760,
   46.4792,       746,
   46.4993,       742,
   46.5195,       721,
   46.5397,       735,
   46.5598,       768,
     46.58,       735,
   46.6002,       684,
   46.6204,       765,
   46.6405,       701,
   46.6607,       701,
   46.6809,       777,
    46.701,       729,
   46.7212,       755,
   46.7414,       741,
   46.7615,       751,
   46.7817,       718,
   46.8019,       775,
    46.822,       742,
   46.8422,       703,
   46.8624,       669,
   46.8825,       705,
   46.9027,       759,
   46.9229,       764,
   46.9431,       737,
   46.9632,       728,
   46.9834,       751,
   47.0036,       746,
   47.0237,       709,
   47.0439,       754,
   47.0641,       754,
   47.0842,       745,
   47.1044,       718,
   47.1246,       698,
   47.1447,       751,
   47.1649,       701,
   47.1851,       745,
   47.2052,       701,
   47.2254,       707,
   47.2456,       731,
   47.2657,       728,
   47.2859,       753,
   47.3061,       726,
   47.3263,       712,
   47.3464,       710,
   47.3666,       725,
   47.3868,       704,
   47.4069,       735,
   47.4271,       713,
   47.4473,       711,
   47.4674,       697,
   47.4876,       745,
   47.5078,       718,
   47.5279,       713,
   47.5481,       709,
   47.5683,       742,
   47.5884,       675,
   47.6086,       733,
   47.6288,       670,
   47.6489,       730,
   47.6691,       726,
   47.6893,       760,
   47.7095,       704,
   47.7296,       691,
   47.7498,       763,
     47.77,       743,
   47.7901,       682,
   47.8103,       734,
   47.8305,       699,
   47.8506,       709,
   47.8708,       720,
    47.891,       694,
   47.9111,       718,
   47.9313,       763,
   47.9515,       702,
   47.9716,       698,
   47.9918,       699,
    48.012,       710,
   48.0322,       700,
   48.0523,       744,
   48.0725,       672,
   48.0927,       687,
   48.1128,       675,
    48.133,       746,
   48.1532,       718,
   48.1733,       713,
   48.1935,       719,
   48.2137,       723,
   48.2338,       777,
    48.254,       776,
   48.2742,       744,
   48.2943,       738,
   48.3145,       747,
   48.3347,       747,
   48.3548,       748,
    48.375,       738,
   48.3952,       723,
   48.4154,       766,
   48.4355,       709,
   48.4557,       731,
   48.4759,       692,
    48.496,       739,
   48.5162,       766,
   48.5364,       755,
   48.5565,       687,
   48.5767,       683,
   48.5969,       709,
    48.617,       762,
   48.6372,       698,
   48.6574,       772,
   48.6775,       700,
   48.6977,       670,
   48.7179,       749,
    48.738,       725,
   48.7582,       768,
   48.7784,       723,
   48.7986,       709,
   48.8187,       756,
   48.8389,       757,
   48.8591,       717,
   48.8792,       724,
   48.8994,       738,
   48.9196,       729,
   48.9397,       713,
   48.9599,       724,
   48.9801,       736,
   49.0002,       714,
   49.0204,       719,
   49.0406,       745,
   49.0607,       752,
   49.0809,       770,
   49.1011,       775,
   49.1213,       769,
   49.1414,       707,
   49.1616,       737,
   49.1818,       746,
   49.2019,       747,
   49.2221,       734,
   49.2423,       762,
   49.2624,       790,
   49.2826,       765,
   49.3028,       736,
   49.3229,       752,
   49.3431,       749,
   49.3633,       760,
   49.3834,       772,
   49.4036,       798,
   49.4238,       766,
   49.4439,       789,
   49.4641,       755,
   49.4843,       796,
   49.5045,       772,
   49.5246,       748,
   49.5448,       821,
    49.565,       854,
   49.5851,       912,
   49.6053,       826,
   49.6255,       859,
   49.6456,       925,
   49.6658,       905,
    49.686,       920,
   49.7061,       993,
   49.7263,      1004,
   49.7465,      1061,
   49.7666,      1171,
   49.7868,      1156,
    49.807,      1213,
   49.8271,      1248,
   49.8473,      1336,
   49.8675,      1418,
   49.8877,      1535,
   49.9078,      1812,
    49.928,      2326,
   49.9482,      3280,
   49.9683,      5042,
   49.9885,      8242,
   50.0087,     11775,
   50.0288,     13313,
    50.049,     11540,
   50.0692,      8277,
   50.0893,      5663,
   50.1095,      5303,
   50.1297,      6121,
   50.1498,      7297,
     50.17,      7277,
   50.1902,      5790,
   50.2104,      3931,
   50.2305,      2608,
   50.2507,      1977,
   50.2709,      1540,
    50.291,      1392,
   50.3112,      1201,
   50.3314,      1167,
   50.3515,      1079,
   50.3717,      1030,
   50.3919,       996,
    50.412,       878,
   50.4322,       967,
   50.4524,       877,
   50.4725,       861,
   50.4927,       817,
   50.5129,       831,
    50.533,       788,
   50.5532,       768,
   50.5734,       819,
   50.5936,       759,
   50.6137,       792,
   50.6339,       769,
   50.6541,       712,
   50.6742,       747,
   50.6944,       752,
   50.7146,       742,
   50.7347,       785,
   50.7549,       753,
   50.7751,       724,
   50.7952,       744,
   50.8154,       716,
   50.8356,       728,
   50.8557,       739,
   50.8759,       721,
   50.8961,       760,
   50.9163,       692,
   50.9364,       756,
   50.9566,       704,
   50.9768,       703,
   50.9969,       680,
   51.0171,       724,
   51.0373,       763,
   51.0574,       681,
   51.0776,       687,
   51.0978,       711,
   51.1179,       763,
   51.1381,       719,
   51.1583,       748,
   51.1784,       726,
   51.1986,       701,
   51.2188,       692,
   51.2389,       715,
   51.2591,       752,
   51.2793,       797,
   51.2995,       668,
   51.3196,       670,
   51.3398,       705,
     51.36,       691,
   51.3801,       709,
   51.4003,       656,
   51.4205,       734,
   51.4406,       715,
   51.4608,       657,
    51.481,       746,
   51.5011,       677,
   51.5213,       675,
   51.5415,       742,
   51.5616,       681,
   51.5818,       708,
    51.602,       709,
   51.6221,       723,
   51.6423,       704,
   51.6625,       682,
   51.6827,       708,
   51.7028,       692,
    51.723,       680,
   51.7432,       732,
   51.7633,       685,
   51.7835,       684,
   51.8037,       699,
   51.8238,       722,
    51.844,       678,
   51.8642,       737,
   51.8843,       668,
   51.9045,       679,
   51.9247,       718,
   51.9448,       665,
    51.965,       628,
   51.9852,       682,
   52.0054,       674,
   52.0255,       708,
   52.0457,       671,
   52.0659,       717,
    52.086,       667,
   52.1062,       683,
   52.1264,       683,
   52.1465,       707,
   52.1667,       698,
   52.1869,       689,
    52.207,       691,
   52.2272,       699,
   52.2474,       689,
   52.2675,       655,
   52.2877,       695,
   52.3079,       681,
    52.328,       689,
   52.3482,       639,
   52.3684,       704,
   52.3886,       679,
   52.4087,       677,
   52.4289,       681,
   52.4491,       668,
   52.4692,       749,
   52.4894,       690,
   52.5096,       693,
   52.5297,       698,
   52.5499,       685,
   52.5701,       687,
   52.5902,       686,
   52.6104,       655,
   52.6306,       662,
   52.6507,       706,
   52.6709,       684,
   52.6911,       700,
   52.7112,       654,
   52.7314,       630,
   52.7516,       717,
   52.7718,       718,
   52.7919,       643,
   52.8121,       626,
   52.8323,       690,
   52.8524,       686,
   52.8726,       689,
   52.8928,       685,
   52.9129,       737,
   52.9331,       678,
   52.9533,       645,
   52.9734,       697,
   52.9936,       656,
   53.0138,       609,
   53.0339,       600,
   53.0541,       678,
   53.0743,       727,
   53.0945,       672,
   53.1146,       674,
   53.1348,       717,
    53.155,       674,
   53.1751,       644,
   53.1953,       627,
   53.2155,       606,
   53.2356,       663,
   53.2558,       709,
    53.276,       621,
   53.2961,       681,
   53.3163,       661,
   53.3365,       666,
   53.3566,       683,
   53.3768,       661,
    53.397,       679,
   53.4171,       666,
   53.4373,       705,
   53.4575,       658,
   53.4777,       677,
   53.4978,       660,
    53.518,       665,
   53.5382,       648,
   53.5583,       681,
   53.5785,       672,
   53.5987,       668,
   53.6188,       660,
    53.639,       676,
   53.6592,       646,
   53.6793,       726,
   53.6995,       705,
   53.7197,       695,
   53.7398,       634,
     53.76,       641,
   53.7802,       643,
   53.8003,       669,
   53.8205,       646,
   53.8407,       660,
   53.8609,       666,
    53.881,       662,
   53.9012,       658,
   53.9214,       661,
   53.9415,       705,
   53.9617,       668,
   53.9819,       666,
    54.002,       646,
   54.0222,       665,
   54.0424,       678,
   54.0625,       649,
   54.0827,       675,
   54.1029,       710,
    54.123,       688,
   54.1432,       653,
   54.1634,       682,
   54.1836,       628,
   54.2037,       665,
   54.2239,       642,
   54.2441,       655,
   54.2642,       669,
   54.2844,       667,
   54.3046,       688,
   54.3247,       662,
   54.3449,       677,
   54.3651,       677,
   54.3852,       614,
   54.4054,       678,
   54.4256,       659,
   54.4457,       638,
   54.4659,       646,
   54.4861,       642,
   54.5062,       670,
   54.5264,       647,
   54.5466,       669,
   54.5668,       672,
   54.5869,       635,
   54.6071,       713,
   54.6273,       671,
   54.6474,       688,
   54.6676,       657,
   54.6878,       646,
   54.7079,       665,
   54.7281,       611,
   54.7483,       686,
   54.7684,       653,
   54.7886,       663,
   54.8088,       651,
   54.8289,       647,
   54.8491,       729,
   54.8693,       679,
   54.8894,       690,
   54.9096,       660,
   54.9298,       651,
     54.95,       714,
   54.9701,       704,
   54.9903,       636,
   55.0105,       653,
   55.0306,       675,
   55.0508,       662,
    55.071,       629,
   55.0911,       638,
   55.1113,       693,
   55.1315,       625,
   55.1516,       634,
   55.1718,       632,
    55.192,       663,
   55.2121,       668,
   55.2323,       656,
   55.2525,       665,
   55.2727,       644,
   55.2928,       667,
    55.313,       713,
   55.3332,       675,
   55.3533,       678,
   55.3735,       684,
   55.3937,       666,
   55.4138,       649,
    55.434,       665,
   55.4542,       642,
   55.4743,       664,
   55.4945,       655,
   55.5147,       654,
   55.5348,       621,
    55.555,       659,
   55.5752,       657,
   55.5953,       680,
   55.6155,       645,
   55.6357,       592,
   55.6559,       627,
    55.676,       639,
   55.6962,       615,
   55.7164,       643,
   55.7365,       646,
   55.7567,       666,
   55.7769,       628,
    55.797,       650,
   55.8172,       639,
   55.8374,       632,
   55.8575,       677,
   55.8777,       632,
   55.8979,       698,
    55.918,       702,
   55.9382,       653,
   55.9584,       662,
   55.9786,       643,
   55.9987,       644,
   56.0189,       667,
   56.0391,       697,
   56.0592,       660,
   56.0794,       664,
   56.0996,       650,
   56.1197,       664,
   56.1399,       641,
   56.1601,       646,
   56.1802,       678,
   56.2004,       626,
   56.2206,       606,
   56.2407,       673,
   56.2609,       650,
   56.2811,       679,
   56.3012,       666,
   56.3214,       617,
   56.3416,       644,
   56.3618,       647,
   56.3819,       668,
   56.4021,       666,
   56.4223,       658,
   56.4424,       638,
   56.4626,       630,
   56.4828,       638,
   56.5029,       610,
   56.5231,       643,
   56.5433,       682,
   56.5634,       637,
   56.5836,       627,
   56.6038,       629,
   56.6239,       608,
   56.6441,       658,
   56.6643,       612,
   56.6844,       641,
   56.7046,       648,
   56.7248,       662,
    56.745,       670,
   56.7651,       619,
   56.7853,       611,
   56.8055,       649,
   56.8256,       653,
   56.8458,       651,
    56.866,       620,
   56.8861,       645,
   56.9063,       639,
   56.9265,       701,
   56.9466,       649,
   56.9668,       644,
    56.987,       639,
   57.0071,       681,
   57.0273,       613,
   57.0475,       599,
   57.0677,       618,
   57.0878,       663,
    57.108,       643,
   57.1282,       654,
   57.1483,       620,
   57.1685,       640,
   57.1887,       631,
   57.2088,       661,
    57.229,       633,
   57.2492,       667,
   57.2693,       639,
   57.2895,       636,
   57.3097,       617,
   57.3298,       609,
     57.35,       613,
   57.3702,       637,
   57.3903,       669,
   57.4105,       696,
   57.4307,       653,
   57.4509,       618,
    57.471,       628,
   57.4912,       649,
   57.5114,       684,
   57.5315,       642,
   57.5517,       613,
   57.5719,       608,
    57.592,       616,
   57.6122,       646,
   57.6324,       633,
   57.6525,       622,
   57.6727,       633,
   57.6929,       626,
    57.713,       644,
   57.7332,       645,
   57.7534,       712,
   57.7735,       650,
   57.7937,       682,
   57.8139,       665,
   57.8341,       644,
   57.8542,       596,
   57.8744,       642,
   57.8946,       627,
   57.9147,       611,
   57.9349,       649,
   57.9551,       661,
   57.9752,       639,
   57.9954,       640,
   58.0156,       631,
   58.0357,       634,
   58.0559,       604,
   58.0761,       645,
   58.0962,       629,
   58.1164,       685,
   58.1366,       653,
   58.1568,       684,
   58.1769,       642,
   58.1971,       634,
   58.2173,       664,
   58.2374,       664,
   58.2576,       638,
   58.2778,       645,
   58.2979,       669,
   58.3181,       598,
   58.3383,       632,
   58.3584,       645,
   58.3786,       620,
   58.3988,       645,
   58.4189,       614,
   58.4391,       597,
   58.4593,       651,
   58.4794,       645,
   58.4996,       657,
   58.5198,       627,
     58.54,       635,
   58.5601,       580,
   58.5803,       654,
   58.6005,       678,
   58.6206,       629,
   58.6408,       666,
    58.661,       641,
   58.6811,       663,
   58.7013,       626,
   58.7215,       637,
   58.7416,       659,
   58.7618,       651,
    58.782,       651,
   58.8021,       641,
   58.8223,       602,
   58.8425,       639,
   58.8626,       658,
   58.8828,       654,
    58.903,       587,
   58.9232,       638,
   58.9433,       664,
   58.9635,       640,
   58.9837,       613,
   59.0038,       662,
    59.024,       652,
   59.0442,       661,
   59.0643,       642,
   59.0845,       619,
   59.1047,       618,
   59.1248,       634,
    59.145,       639,
   59.1652,       680,
   59.1853,       630,
   59.2055,       644,
   59.2257,       622,
   59.2459,       610,
    59.266,       624,
   59.2862,       680,
   59.3064,       640,
   59.3265,       578,
   59.3467,       639,
   59.3669,       623,
    59.387,       639,
   59.4072,       596,
   59.4274,       662,
   59.4475,       615,
   59.4677,       633,
   59.4879,       632,
    59.508,       659,
   59.5282,       663,
   59.5484,       629,
   59.5685,       657,
   59.5887,       638,
   59.6089,       599,
   59.6291,       682,
   59.6492,       601,
   59.6694,       654,
   59.6896,       631,
   59.7097,       636,
   59.7299,       623,
   59.7501,       663,
   59.7702,       618,
   59.7904,       612,
   59.8106,       652,
   59.8307,       630,
   59.8509,       607,
   59.8711,       621,
   59.8912,       596,
   59.9114,       639,
   59.9316,       610,
   59.9517,       653,
   59.9719,       642,
   59.9921,       644,
   60.0123,       610,
   60.0324,       598,
   60.0526,       635,
   60.0728,       653,
   60.0929,       652,
   60.1131,       690,
   60.1333,       642,
   60.1534,       626,
   60.1736,       629,
   60.1938,       660,
   60.2139,       611,
   60.2341,       635,
   60.2543,       612,
   60.2744,       584,
   60.2946,       595,
   60.3148,       619,
    60.335,       653,
   60.3551,       652,
   60.3753,       661,
   60.3955,       626,
   60.4156,       652,
   60.4358,       661,
    60.456,       611,
   60.4761,       633,
   60.4963,       634,
   60.5165,       616,
   60.5366,       615,
   60.5568,       605,
    60.577,       624,
   60.5971,       623,
   60.6173,       628,
   60.6375,       623,
   60.6576,       642,
   60.6778,       653,
    60.698,       643,
   60.7182,       604,
   60.7383,       651,
   60.7585,       653,
   60.7787,       610,
   60.7988,       617,
    60.819,       660,
   60.8392,       580,
   60.8593,       605,
   60.8795,       646,
   60.8997,       655,
   60.9198,       629,
     60.94,       670,
   60.9602,       639,
   60.9803,       635,
   61.0005,       574,
   61.0207,       624,
   61.0409,       623,
    61.061,       720,
   61.0812,       663,
   61.1014,       656,
   61.1215,       615,
   61.1417,       596,
   61.1619,       666,
    61.182,       659,
   61.2022,       613,
   61.2224,       646,
   61.2425,       626,
   61.2627,       590,
   61.2829,       620,
    61.303,       613,
   61.3232,       583,
   61.3434,       626,
   61.3635,       605,
   61.3837,       648,
   61.4039,       625,
   61.4241,       641,
   61.4442,       648,
   61.4644,       604,
   61.4846,       664,
   61.5047,       622,
   61.5249,       602,
   61.5451,       644,
   61.5652,       615,
   61.5854,       603,
   61.6056,       662,
   61.6257,       634,
   61.6459,       640,
   61.6661,       590,
   61.6862,       621,
   61.7064,       657,
   61.7266,       591,
   61.7467,       614,
   61.7669,       628,
   61.7871,       594,
   61.8073,       683,
   61.8274,       672,
   61.8476,       635,
   61.8678,       616,
   61.8879,       639,
   61.9081,       641,
   61.9283,       574,
   61.9484,       649,
   61.9686,       631,
   61.9888,       644,
   62.0089,       594,
   62.0291,       655,
   62.0493,       616,
   62.0694,       645,
   62.0896,       610,
   62.1098,       640,
     62.13,       622,
   62.1501,       610,
   62.1703,       620,
   62.1905,       624,
   62.2106,       634,
   62.2308,       615,
    62.251,       606,
   62.2711,       643,
   62.2913,       562,
   62.3115,       623,
   62.3316,       597,
   62.3518,       633,
    62.372,       669,
   62.3921,       605,
   62.4123,       585,
   62.4325,       617,
   62.4526,       608,
   62.4728,       630,
    62.493,       670,
   62.5132,       602,
   62.5333,       627,
   62.5535,       600,
   62.5737,       611,
   62.5938,       641,
    62.614,       639,
   62.6342,       612,
   62.6543,       647,
   62.6745,       620,
   62.6947,       602,
   62.7148,       651,
    62.735,       614,
   62.7552,       612,
   62.7753,       627,
   62.7955,       618,
   62.8157,       645,
   62.8358,       591,
    62.856,       656,
   62.8762,       621,
   62.8964,       635,
   62.9165,       597,
   62.9367,       627,
   62.9569,       624,
    62.977,       621,
   62.9972,       618,
   63.0174,       639,
   63.0375,       660,
   63.0577,       616,
   63.0779,       641,
    63.098,       635,
   63.1182,       655,
   63.1384,       609,
   63.1585,       624,
   63.1787,       606,
   63.1989,       683,
   63.2191,       593,
   63.2392,       639,
   63.2594,       681,
   63.2796,       632,
   63.2997,       649,
   63.3199,       638,
   63.3401,       651,
   63.3602,       627,
   63.3804,       691,
   63.4006,       626,
   63.4207,       577,
   63.4409,       647,
   63.4611,       581,
   63.4812,       655,
   63.5014,       600,
   63.5216,       606,
   63.5417,       596,
   63.5619,       633,
   63.5821,       619,
   63.6023,       604,
   63.6224,       595,
   63.6426,       649,
   63.6628,       654,
   63.6829,       593,
   63.7031,       597,
   63.7233,       615,
   63.7434,       626,
   63.7636,       636,
   63.7838,       600,
   63.8039,       628,
   63.8241,       636,
   63.8443,       658,
   63.8644,       645,
   63.8846,       653,
   63.9048,       628,
   63.9249,       628,
   63.9451,       627,
   63.9653,       670,
   63.9855,       651,
   64.0056,       628,
   64.0258,       646,
    64.046,       651,
   64.0661,       635,
   64.0863,       621,
   64.1065,       622,
   64.1266,       644,
   64.1468,       615,
    64.167,       616,
   64.1871,       640,
   64.2073,       675,
   64.2275,       605,
   64.2476,       614,
   64.2678,       637,
    64.288,       622,
   64.3082,       611,
   64.3283,       618,
   64.3485,       679,
   64.3687,       603,
   64.3888,       628,
    64.409,       636,
   64.4292,       661,
   64.4493,       666,
   64.4695,       608,
   64.4897,       648,
   64.5098,       634,
     64.53,       654,
   64.5502,       607,
   64.5703,       642,
   64.5905,       642,
   64.6107,       602,
   64.6308,       596,
    64.651,       615,
   64.6712,       665,
   64.6914,       613,
   64.7115,       620,
   64.7317,       620,
   64.7519,       634,
    64.772,       611,
   64.7922,       580,
   64.8124,       635,
   64.8325,       610,
   64.8527,       667,
   64.8729,       639,
    64.893,       579,
   64.9132,       647,
   64.9334,       609,
   64.9535,       638,
   64.9737,       645,
   64.9939,       602,
    65.014,       627,
   65.0342,       631,
   65.0544,       628,
   65.0746,       648,
   65.0947,       662,
   65.1149,       657,
   65.1351,       615,
   65.1552,       591,
   65.1754,       609,
   65.1956,       604,
   65.2157,       660,
   65.2359,       606,
   65.2561,       606,
   65.2762,       609,
   65.2964,       614,
   65.3166,       599,
   65.3367,       666,
   65.3569,       535,
   65.3771,       625,
   65.3973,       648,
   65.4174,       643,
   65.4376,       612,
   65.4578,       665,
   65.4779,       610,
   65.4981,       624,
   65.5183,       629,
   65.5384,       637,
   65.5586,       651,
   65.5788,       670,
   65.5989,       663,
   65.6191,       658,
   65.6393,       654,
   65.6594,       614,
   65.6796,       664,
   65.6998,       632,
   65.7199,       655,
   65.7401,       644,
   65.7603,       612,
   65.7805,       647,
   65.8006,       612,
   65.8208,       645,
    65.841,       618,
   65.8611,       589,
   65.8813,       648,
   65.9015,       615,
   65.9216,       628,
   65.9418,       623,
    65.962,       611,
   65.9821,       678,
   66.0023,       633,
   66.0225,       610,
   66.0426,       649,
   66.0628,       657,
    66.083,       637,
   66.1032,       613,
   66.1233,       619,
   66.1435,       662,
   66.1637,       666,
   66.1838,       670,
    66.204,       630,
   66.2242,       644,
   66.2443,       636,
   66.2645,       608,
   66.2847,       649,
   66.3048,       609,
    66.325,       596,
   66.3452,       644,
   66.3653,       637,
   66.3855,       635,
   66.4057,       647,
   66.4258,       643,
    66.446,       635,
   66.4662,       633,
   66.4864,       592,
   66.5065,       600,
   66.5267,       602,
   66.5469,       636,
    66.567,       627,
   66.5872,       659,
   66.6074,       620,
   66.6275,       656,
   66.6477,       609,
   66.6679,       597,
    66.688,       588,
   66.7082,       592,
   66.7284,       615,
   66.7485,       659,
   66.7687,       648,
   66.7889,       613,
    66.809,       613,
   66.8292,       609,
   66.8494,       619,
   66.8696,       644,
   66.8897,       616,
   66.9099,       658,
   66.9301,       599,
   66.9502,       629,
   66.9704,       587,
   66.9906,       621,
   67.0107,       631,
   67.0309,       629,
   67.0511,       597,
   67.0712,       626,
   67.0914,       629,
   67.1116,       627,
   67.1317,       626,
   67.1519,       634,
   67.1721,       635,
   67.1923,       656,
   67.2124,       630,
   67.2326,       618,
   67.2528,       643,
   67.2729,       590,
   67.2931,       590,
   67.3133,       612,
   67.3334,       603,
   67.3536,       636,
   67.3738,       631,
   67.3939,       639,
   67.4141,       602,
   67.4343,       604,
   67.4544,       574,
   67.4746,       642,
   67.4948,       628,
   67.5149,       640,
   67.5351,       623,
   67.5553,       629,
   67.5755,       632,
   67.5956,       633,
   67.6158,       629,
    67.636,       634,
   67.6561,       659,
   67.6763,       606,
   67.6965,       644,
   67.7166,       632,
   67.7368,       598,
    67.757,       647,
   67.7771,       646,
   67.7973,       656,
   67.8175,       626,
   67.8376,       616,
   67.8578,       622,
    67.878,       641,
   67.8981,       683,
   67.9183,       638,
   67.9385,       631,
   67.9587,       619,
   67.9788,       644,
    67.999,       606,
   68.0192,       650,
   68.0393,       635,
   68.0595,       610,
   68.0797,       597,
   68.0998,       617,
     68.12,       626,
   68.1402,       652,
   68.1603,       583,
   68.1805,       618,
   68.2007,       672,
   68.2208,       638,
    68.241,       580,
   68.2612,       641,
   68.2814,       624,
   68.3015,       629,
   68.3217,       648,
   68.3419,       640,
    68.362,       626,
   68.3822,       588,
   68.4024,       663,
   68.4225,       633,
   68.4427,       643,
   68.4629,       629,
    68.483,       596,
   68.5032,       634,
   68.5234,       647,
   68.5435,       617,
   68.5637,       610,
   68.5839,       643,
    68.604,       648,
   68.6242,       660,
   68.6444,       617,
   68.6646,       615,
   68.6847,       609,
   68.7049,       619,
   68.7251,       657,
   68.7452,       638,
   68.7654,       623,
   68.7856,       637,
   68.8057,       595,
   68.8259,       547,
   68.8461,       589,
   68.8662,       633,
   68.8864,       641,
   68.9066,       659,
   68.9267,       613,
   68.9469,       590,
   68.9671,       639,
   68.9872,       614,
   69.0074,       606,
   69.0276,       642,
   69.0478,       621,
   69.0679,       630,
   69.0881,       620,
   69.1083,       624,
   69.1284,       625,
   69.1486,       657,
   69.1688,       650,
   69.1889,       601,
   69.2091,       624,
   69.2293,       609,
   69.2494,       605,
   69.2696,       588,
   69.2898,       606,
   69.3099,       654,
   69.3301,       650,
   69.3503,       641,
   69.3705,       624,
   69.3906,       597,
   69.4108,       622,
    69.431,       636,
   69.4511,       626,
   69.4713,       663,
   69.4915,       618,
   69.5116,       613,
   69.5318,       637,
    69.552,       631,
   69.5721,       653,
   69.5923,       616,
   69.6125,       627,
   69.6326,       660,
   69.6528,       619,
    69.673,       614,
   69.6931,       635,
   69.7133,       613,
   69.7335,       655,
   69.7537,       633,
   69.7738,       608,
    69.794,       574,
   69.8142,       610,
   69.8343,       666,
   69.8545,       626,
   69.8747,       618,
   69.8948,       667,
    69.915,       645,
   69.9352,       638,
   69.9553,       627,
   69.9755,       591,
   69.9957,       635,
   70.0158,       661,
    70.036,       650,
   70.0562,       657,
   70.0763,       643,
   70.0965,       622,
   70.1167,       617,
   70.1369,       650,
    70.157,       623,
   70.1772,       628,
   70.1974,       587,
   70.2175,       614,
   70.2377,       561,
   70.2579,       627,
    70.278,       669,
   70.2982,       625,
   70.3184,       640,
   70.3385,       640,
   70.3587,       616,
   70.3789,       611,
    70.399,       614,
   70.4192,       609,
   70.4394,       660,
   70.4596,       667,
   70.4797,       622,
   70.4999,       615,
   70.5201,       628,
   70.5402,       617,
   70.5604,       572,
   70.5806,       622,
   70.6007,       630,
   70.6209,       621,
   70.6411,       632,
   70.6612,       602,
   70.6814,       600,
   70.7016,       617,
   70.7217,       640,
   70.7419,       620,
   70.7621,       617,
   70.7822,       607,
   70.8024,       641,
   70.8226,       597,
   70.8428,       661,
   70.8629,       682,
   70.8831,       664,
   70.9033,       648,
   70.9234,       624,
   70.9436,       663,
   70.9638,       631,
   70.9839,       671,
   71.0041,       599,
   71.0243,       685,
   71.0444,       622,
   71.0646,       628,
   71.0848,       655,
   71.1049,       658,
   71.1251,       659,
   71.1453,       626,
   71.1654,       668,
   71.1856,       657,
   71.2058,       608,
    71.226,       658,
   71.2461,       623,
   71.2663,       623,
   71.2865,       602,
   71.3066,       649,
   71.3268,       721,
    71.347,       629,
   71.3671,       632,
   71.3873,       613,
   71.4075,       631,
   71.4276,       688,
   71.4478,       646,
    71.468,       689,
   71.4881,       648,
   71.5083,       662,
   71.5285,       639,
   71.5487,       638,
   71.5688,       646,
    71.589,       665,
   71.6092,       645,
   71.6293,       647,
   71.6495,       632,
   71.6697,       641,
   71.6898,       667,
     71.71,       692,
   71.7302,       675,
   71.7503,       647,
   71.7705,       636,
   71.7907,       668,
   71.8108,       652,
    71.831,       667,
   71.8512,       636,
   71.8713,       633,
   71.8915,       629,
   71.9117,       674,
   71.9319,       654,
    71.952,       642,
   71.9722,       723,
   71.9924,       668,
   72.0125,       628,
   72.0327,       626,
   72.0529,       667,
    72.073,       647,
   72.0932,       627,
   72.1134,       614,
   72.1335,       642,
   72.1537,       639,
   72.1739,       641,
    72.194,       637,
   72.2142,       629,
   72.2344,       653,
   72.2546,       683,
   72.2747,       666,
   72.2949,       658,
   72.3151,       662,
   72.3352,       672,
   72.3554,       646,
   72.3756,       657,
   72.3957,       614,
   72.4159,       690,
   72.4361,       598,
   72.4562,       656,
   72.4764,       624,
   72.4966,       657,
   72.5167,       665,
   72.5369,       633,
   72.5571,       637,
   72.5772,       694,
   72.5974,       637,
   72.6176,       679,
   72.6378,       651,
   72.6579,       649,
   72.6781,       654,
   72.6983,       668,
   72.7184,       657,
   72.7386,       682,
   72.7588,       672,
   72.7789,       661,
   72.7991,       678,
   72.8193,       632,
   72.8394,       657,
   72.8596,       685,
   72.8798,       659,
   72.8999,       650,
   72.9201,       654,
   72.9403,       678,
   72.9604,       635,
   72.9806,       703,
   73.0008,       673,
    73.021,       699,
   73.0411,       672,
   73.0613,       686,
   73.0815,       683,
   73.1016,       704,
   73.1218,       655,
    73.142,       714,
   73.1621,       666,
   73.1823,       698,
   73.2025,       768,
   73.2226,       708,
   73.2428,       784,
    73.263,       723,
   73.2831,       818,
   73.3033,       773,
   73.3235,       785,
   73.3437,       858,
   73.3638,       907,
    73.384,       902,
   73.4042,       914,
   73.4243,       872,
   73.4445,       937,
   73.4647,       938,
   73.4848,       906,
    73.505,      1022,
   73.5252,       977,
   73.5453,      1068,
   73.5655,      1173,
   73.5857,      1301,
   73.6058,      1434,
    73.626,      1725,
   73.6462,      2019,
   73.6663,      2843,
   73.6865,      4287,
   73.7067,      6823,
   73.7269,     11013,
    73.747,     13867,
   73.7672,     12846,
   73.7874,      9262,
   73.8075,      5669,
   73.8277,      3635,
   73.8479,      2636,
    73.868,      2483,
   73.8882,      2567,
   73.9084,      3283,
   73.9285,      4645,
   73.9487,      6370,
   73.9689,      7297,
    73.989,      6257,
   74.0092,      4525,
   74.0294,      2959,
   74.0495,      2012,
   74.0697,      1570,
   74.0899,      1395,
   74.1101,      1084,
   74.1302,      1084,
   74.1504,       941,
   74.1706,       878,
   74.1907,       892,
   74.2109,       874,
   74.2311,       814,
   74.2512,       767,
   74.2714,       803,
   74.2916,       783,
   74.3117,       798,
   74.3319,       762,
   74.3521,       770,
   74.3722,       697,
   74.3924,       671,
   74.4126,       726,
   74.4328,       718,
   74.4529,       704,
   74.4731,       688,
   74.4933,       663,
   74.5134,       701,
   74.5336,       722,
   74.5538,       717,
   74.5739,       685,
   74.5941,       658,
   74.6143,       717,
   74.6344,       696,
   74.6546,       649,
   74.6748,       727,
   74.6949,       711,
   74.7151,       659,
   74.7353,       675,
   74.7554,       659,
   74.7756,       692,
   74.7958,       664,
    74.816,       688,
   74.8361,       655,
   74.8563,       658,
   74.8765,       690,
   74.8966,       697,
   74.9168,       654,
    74.937,       687,
   74.9571,       677,
   74.9773,       693,
   74.9975,       656,
   75.0176,       664,
   75.0378,       669,
    75.058,       670,
   75.0781,       687,
   75.0983,       659,
   75.1185,       670,
   75.1386,       617,
   75.1588,       656,
    75.179,       667,
   75.1992,       626,
   75.2193,       666,
   75.2395,       720,
   75.2597,       675,
   75.2798,       674,
      75.3,       633,
   75.3202,       656,
   75.3403,       625,
   75.3605,       669,
   75.3807,       660,
   75.4008,       661,
    75.421,       619,
   75.4412,       615,
   75.4613,       656,
   75.4815,       645,
   75.5017,       654,
   75.5219,       676,
    75.542,       630,
   75.5622,       650,
   75.5824,       707,
   75.6025,       657,
   75.6227,       656,
   75.6429,       649,
    75.663,       664,
   75.6832,       649,
   75.7034,       646,
   75.7235,       638,
   75.7437,       661,
   75.7639,       646,
    75.784,       641,
   75.8042,       679,
   75.8244,       655,
   75.8445,       648,
   75.8647,       625,
   75.8849,       630,
   75.9051,       602,
   75.9252,       608,
   75.9454,       588,
   75.9656,       659,
   75.9857,       608,
   76.0059,       664,
   76.0261,       637,
   76.0462,       632,
   76.0664,       667,
   76.0866,       647,
   76.1067,       633,
   76.1269,       654,
   76.1471,       624,
   76.1672,       676,
   76.1874,       615,
   76.2076,       638,
   76.2277,       664,
   76.2479,       645,
   76.2681,       638,
   76.2883,       629,
   76.3084,       590,
   76.3286,       649,
   76.3488,       659,
   76.3689,       662,
   76.3891,       617,
   76.4093,       657,
   76.4294,       670,
   76.4496,       634,
   76.4698,       621,
   76.4899,       611,
   76.5101,       600,
   76.5303,       625,
   76.5504,       625,
   76.5706,       651,
   76.5908,       661,
    76.611,       650,
   76.6311,       670,
   76.6513,       673,
   76.6715,       658,
   76.6916,       651,
   76.7118,       668,
    76.732,       658,
   76.7521,       675,
   76.7723,       648,
   76.7925,       651,
   76.8126,       679,
   76.8328,       652,
    76.853,       627,
   76.8731,       595,
   76.8933,       665,
   76.9135,       655,
   76.9336,       607,
   76.9538,       674,
    76.974,       627,
   76.9942,       628,
   77.0143,       625,
   77.0345,       613,
   77.0547,       621,
   77.0748,       616,
    77.095,       617,
   77.1152,       624,
   77.1353,       653,
   77.1555,       624,
   77.1757,       614,
   77.1958,       621,
    77.216,       644,
   77.2362,       634,
   77.2563,       646,
   77.2765,       629,
   77.2967,       622,
   77.3169,       667,
    77.337,       636,
   77.3572,       644,
   77.3774,       648,
   77.3975,       648,
   77.4177,       679,
   77.4379,       651,
    77.458,       595,
   77.4782,       642,
   77.4984,       662,
   77.5185,       634,
   77.5387,       676,
   77.5589,       659,
    77.579,       632,
   77.5992,       624,
   77.6194,       622,
   77.6395,       633,
   77.6597,       653,
   77.6799,       622,
   77.7001,       643,
   77.7202,       618,
   77.7404,       623,
   77.7606,       672,
   77.7807,       620,
   77.8009,       639,
   77.8211,       662,
   77.8412,       656,
   77.8614,       655,
   77.8816,       618,
   77.9017,       636,
   77.9219,       628,
   77.9421,       635,
   77.9622,       639,
   77.9824,       681,
   78.0026,       626,
   78.0227,       628,
   78.0429,       615,
   78.0631,       664,
   78.0833,       644,
   78.1034,       656,
   78.1236,       628,
   78.1438,       649,
   78.1639,       560,
   78.1841,       627,
   78.2043,       624,
   78.2244,       596,
   78.2446,       690,
   78.2648,       643,
   78.2849,       654,
   78.3051,       626,
   78.3253,       672,
   78.3454,       630,
   78.3656,       644,
   78.3858,       628,
    78.406,       637,
   78.4261,       641,
   78.4463,       649,
   78.4665,       686,
   78.4866,       645,
   78.5068,       649,
    78.527,       663,
   78.5471,       616,
   78.5673,       629,
   78.5875,       641,
   78.6076,       643,
   78.6278,       699,
    78.648,       609,
   78.6681,       654,
   78.6883,       596,
   78.7085,       645,
   78.7286,       632,
   78.7488,       637,
    78.769,       685,
   78.7892,       626,
   78.8093,       629,
   78.8295,       610,
   78.8497,       640,
   78.8698,       669,
     78.89,       612,
   78.9102,       642,
   78.9303,       610,
   78.9505,       636,
   78.9707,       617,
   78.9908,       598,
    79.011,       638,
   79.0312,       646,
   79.0513,       645,
   79.0715,       634,
   79.0917,       630,
   79.1118,       598,
    79.132,       626,
   79.1522,       605,
   79.1724,       655,
   79.1925,       622,
   79.2127,       623,
   79.2329,       661,
    79.253,       617,
   79.2732,       577,
   79.2934,       608,
   79.3135,       604,
   79.3337,       657,
   79.3539,       614,
    79.374,       639,
   79.3942,       625,
   79.4144,       619,
   79.4345,       623,
   79.4547,       622,
   79.4749,       644,
   79.4951,       696,
   79.5152,       626,
   79.5354,       606,
   79.5556,       624,
   79.5757,       632,
   79.5959,       679,
   79.6161,       642,
   79.6362,       601,
   79.6564,       638,
   79.6766,       639,
   79.6967,       655,
   79.7169,       675,
   79.7371,       647,
   79.7572,       637,
   79.7774,       630,
   79.7976,       645,
   79.8177,       609,
   79.8379,       660,
   79.8581,       643,
   79.8783,       623,
   79.8984,       650,
   79.9186,       597,
   79.9388,       623,
   79.9589,       602,
   79.9791,       617,
   79.9993,       606,
   80.0194,       666,
