;RAW4.00
[RawHeader]
Date=07/15/2025
EstimatedTotalTime=545.6
FurtherDQLReading=0
HardwareIndicator=65519
MeasuredTotalTime=5.48561
MeasurementFlag=1
NumberOfMeasuredRanges=1
NumberOfRanges=1
Time=17:27:27

[VarInfo]
Type=USER
Flags=0
Value=Lab Manager

[VarInfo]
Type=SAMPLEID
Flags=0
Value=Commander Sample ID

[VarInfo]
Type=COMMENT
Flags=0
Value=

[VarInfo]
Type=UTF
Flags=0
Value=

[VarInfo]
Type=CREATOR
Flags=0
Value=V5Converter

[VarInfo]
Type=CREATOR_VERSION
Flags=0
Value=4.4.16.0

[HardwareConfiguration]
AbsorptionFactor=9999
ActivateAbsorber=0
Alpha1=1.5406
Alpha2=1.54439
AlphaAverage=1.54184
AlphaRatio=0.5
Analyzer=0
Anode=Cu
AntiScatteringSlit=9999
BeamOpticsFlags=0
Beta=1.39222
BetaRelativeIntensity=0
DeactivateAbsorber=0
DetectorSlit=9999
DivergenceSlit=9999
GoniometerControl=0
GoniometerDiameter=282
GoniometerModel=256
GoniometerStage=7
Monochromator=0
NearSampleSlit=9999
PrimarySollerSlit=9999
SampleChanger=0
SecondSollerSlit=9999
SynchronousAxis=0
ThinFilmAttachment=9999
WaveUnit=A

[RangeHeader]
ActuallyUsedLambda=1.54184
AdditionalDetectorMask=257
DataRecordLength=4
DelayTime=0
DisplayPlaneNumber=0
EstimatedScanTime=546
ExtraParametersMask=0
GeneratorCurrent=10
GeneratorVoltage=30
Increment=0.0201685
Increment3=0
NumberOfCompletedData=2480
NumberOfCounts=1
NumberOfDetectors=0
NumberOfDrives=3
NumberOfEncoderDrives=0
NumberOfMeasuredData=2480
NumberOfVaryingParameters=0
RangeStartTime=0
RotationSpeed=0
ScanMode=1
ScanType=Locked Coupled
SimulatedMeasConditions=0
SlitChangerIn=0
SmootingWidth=0
Start=30.0015
Steps=2480
SynchronousRotation=0
Time=33

[VarInfo]
Type=PSD_DISCRIM
Flags=0
Value=0.11;0.5

[VarInfo]
Type=OPTICS_V5
Flags=0
Value=H4sIAAAAAAAEAO1d63KjOhJ+Fda/zqmtBIPtXKaITzm2J+OaOHbFTnKmtrZcBORYZzC4AOey//d99hl2X2x1QViIS8C3JBN+TCaodWm6+2vUUkfS/nieW9IjcD3o2GcV5bBakYBtOCa0H84qS396oBxV/mhqF44NnTnwgdt25gvHBrbf0X1dQq1t78uzB88qM99ffJHlp6enw6faoeM+yGq1qsh/9i9HxgzM9QNoe75uG6AStjJfb1WRbqEH7y1wpc/BWWXFR0joAM9w4cInL/Bj4UHLsSW+3oXrLBc9NBZ6t3Pgojcb3P8FDH+o+7OzitwBj9AAMt+CrxUfl1Lblu55QRehTORzoM8XqLDt2L4ObeBy/coBc6yHluEvdYtxoR6o1ePT02O5h8TkLue4tzhrTW2EZGjqqBswQr3oFvyXjl+9OdUtD2hyGln7c259hcAyrwHqHhq4EDFpA/KbJ8lNjfKD1ToCFipvdm00JDA1OUbR6Btwou9Ab2HpL824AjQ5tXK8m+bF4OrHhPzodEft64TGrBVWDOsoPhpP1bBWhrxWvISy1r0hIUP+4r8skMLHrm78xG8sGODQhXPdfSHkZBMMakgD9GxISBvSeHkPOIFIQeOidilHx44baRI9r5mSRmyEDSxUYBJZ3blu/xy4JnCvAfYzAL0wsdX3b8s5NVnMwIfj6+8T9KPV/l7IxHm5Jhp5z0OvBh9BE+kGCS98DAk920dCZMIVSikeHA9SJulgmhwp1bAq2ZMXfZT4B2LSAxc+QFu3ogSlwl6OWi7Ssb/0moPwnSLFGmsYPPedJdIj0qJQrgWE0MJ5JCOdEXICmjFtjmnJUA7J0tRxpRHQLUBtYA3AytxYcejGiMm4JZa46kmmLG0LrhEWBa3xcus++8A2MZDfDYZpCWdMkQKtj5nwHfcltGVFk+OFGseMJxH2qHoYWND7cnJosmJN5ku1uCnh1+H65qyTKx3Y545jAR1NEG5s6BPpdiDSG56bXcI59IlYwiKvWdVk7knrgKm+tPxb3VoCboigVyQ96CPXTshnFewlKri/oQta5l9LD8GnYEuZYx67mbHTJoqe6ZblPK0cjVCOarZnwPgJzFUVVqC1ESPOHKsWvx33pNH5Zl7erhEyxkg2xVq1lr7TdoHug6HrLIDrvzAWEyiR9/eIRfdMhLKr5fweuE21rslCEdaQRS08UPF//xMyUSUc9B0TNG8Quqbos4xMnTwz90Y+PzEHluy7tuWt5HgP/ND5vNXOHBXjLvaN2aNbYuh5A79Evm3IJvErCL6JJ23LP418rD3OPSHRTOHDEjnla/gw85sIdabECnU0BoKwUKWYS+vrz5fAfvBnTbXRwKJhj2nOjrJISkNktZevObqMVm/q5DL4SnFwGS02cm5pFninPwKqkpa1mOmKYIUieVuWOJh2nCVqyWzxf//ehzWm2Nxw9uJBQ7dIeQJnTA/KYaNePXrNFtfo7ca2MPfItOjcf/WMZelYS+paugfVBtErK9H60Ibz5bx5oBwenx4fndaUWv3kSK0pjePu32vVE4S4oAZGIvklvWZQ4W0Rs4b0UpC0Rk/7QJiajTD10yOsXjvdJsRYdyXGNhLfFkDGuto1yh6Bqz+IoV6M/ulxppzUt4kz1l2Js43EtwWcsa52jLNz4OupIMPET46w2qmqqttD2Kq7EmEbiW9jhK262jHCrvGaRirECHVXGHuvCFutth02NsJWrKMSVWsKbh08xTrZCZK+OsbSG7gQ2D5ZHRSgJJK3tspG1g4H057tH9XfH6CibEVXr/OjKbkXhfRCBYDfqOeDOWLs0nmABl3VvJn0rm5bl73OpP2tN9TkFYkJfAye/WbPftQtiMQzg4uVjCJaIvW07+CFjI1lEf6uyTEWsnm67F2lsnIJbSARW0kbWtlk6OEgY+yhA20/e3B1k8GZLoaD0auqCHeKD6S58wgk35HmwJjpNrYKCTmTxd/SeKxl8/ienF2WXefzdFk9bOTm6N5Lz546UqiqhAVciZbr3FOQY3BWIVUkVBrdJr+ZtC6H31rRcrGRhEeyyEjkXXKxo0bYURPZUVPYUbPYUQuzEywL8PxEyoQBQloib5PW7UUWe0HrokySmCrg8D78PeybkkWGzrvjVjIvuH4+FiIbUQEDqBXeyxN46LJSkY3uZbffvRqnSMV2TCAFbaXVSDlkQmfBvNq4EkHsASVZZdetcW+QpTTSOp+8YlOLgL9pYnk4ToQicvl10J4MrpMZJONJkeZyfMe6Ed+xvgA2skTfcYU8TFacvPmcsQFLZ8dr7r82tXQiP3O7dSw/voYXlO4q5vl5u6WEjcypLxqFfRNqVSHyCL4FKaFHctihVBMCjFp1f7FErbF+MBEXRsEvZLo55TW19tJ1sT+LmlpQuitTm7f2YWpolHD6sQ1TaySFsh/E0uKy2LulDZ0nkgHOmxQp25WV3aUEnW+xcHMnRJr5lluqhymm+EkWW+4491hde7Ul3ssWbV9+7YtfJA0UTQyNGXBfyVbbPA8ud74bklUw60j9YgWfilQ/I4dzraYmBmuZ2QhiKJW9qxqLdLI3h6IxR/YytzAXT1vD42MIIXVJnC4nR8cylyaJ7OZRhxZeJcCPHu2eWH2ZQFkmUJYJlGUCZZlA+fE2xcsEyvezJV4mUP6aCCsTKN8TxsoEyl8VZ2UC5XvCWZlA+ashrEygfE8IKxMoywTKMoGyTKAsEyjLBMoygbJMoCwTKMsEyjKBskygLBMoywTKMoGyTKAsEyjLBMoygbJMoHzr+KNMoCwTKD9tAiXLkUS/iumT7KzT+Cmg4tm7GScqd+cL/4UkG4arGcVOT+72h4PRhP4scnoyGTg0xcTzk2U+BzLzcGMl7XBjde+HGw8WbefceR5MR45lATfhiGNKyDjkmKsg/WbotmTQQ8ElNJZEifQE7N/XgX9k+LhXSSBnuYaE6hunwkb7FPSZfOxxRGTIPPKL8PePe2KymphYK0bAR+scevtxXAin6Q2diJrmRGpv50S+wmdgEkNlcw/RmVjQz3IliCz1U2CAaRv4kdXICV5EJGb6ELHy5h6E61FQZYr/YA2o98gntQ/sOmq5XMfxeudlE7OmVzSsTJpYMhZe0hcRy1SR/jGf/zPDjH/DR/7fA2QfErQ9hAVgol98R9I5hWWaMq5mhBds4KeJUp0oaQYcIb5mwIVtN52ZmPP5qH/5US30lx930PRnYm4HLtvZktP8/WxBxzgL44DNsuvjPeVdZqh+7nWGuODWWWeI97KTtI5vABumgB1a+LnBszXslNBZz+i3gpzt3wSirjOzGenzhQXuZgBYY/QC/KUgIkkjH65UJ0ChmfamMj+F+lCxGJtFbxiJ1dIisfpGkRjhMR6HvT9h3thLD5hkeHHgLInKwm1g17oJl16CldWVYB+fXrg3mE494KdZfesZevz3Iay2B1ceYybnbh1ywVU1LSlVPTypn6qNRkNN8LvHjcOTRv24dqQqvK8VhNAM7mETbitc+w7DEUCRgJl9i2FYh7v9roNCXwNnMmzhLkORh4SYKLFGsfsMwz42ifVFRj70nYaF9FrM/4zwzYaj4jcbRuW787sNw+F2cbvhyRss3uHlOks3wMyxzMQtgMsX+xm8pBxzcfnj6s/ujy654bCjSsOZ7olX4OYEsRyOEwezQMpa3mDWKOO8X3k4Wj2jProvYAvX6KYzLmrzl7v28CTPUlxNiU9Yi8wL0ecUu0XdWrmWfniNJk2pxn6HJHazGl4xZ9PpjyfkXwFHw4ba6R6gstmscZebgP09bgIKCIswkLYN2N/zNmAmj6JSs3YC+59rJ1Cp53Ii1c+wFVhGSkUjpbRAqXF4dHrSUJRqPWmBqqEcHldP68dqfQeB0sontAHGieA9hcKI4+SmzLSadMAw70kjnLfkkW8dVkPLMIDnOS4E3hoRE+Mi7j2jlLwRUvyl1/ekrIcPHRqtqcpiLudicNWekB9FHA7lZ+eh0Ri4qHQnkdHp3mdFwxkkShPAfO0EGXBRYgTUqKlErdE1Wb0CGJXZGHSdNqGDKCsJ1TJnP6vqMuJUZpxuDuAUxgVFpsREEgUYMFu+rxszPNBZ5WDPRwluc5pzmitr4SQ+y+l5TBQhKMMCjfMcZLfIWj48ALPjYkzSv8ZE3eHvWs9sIu2S3oNHTCEVRwtgwGnwt6KsUpyC4BLvvcgEK46DYs5u+K03mpAfRZxdFKHbnGBVi0yvQisOP5lEYfRDEPwf22IqXU7pckqXI7qcECvsd+8VLsZPznhGTjB6jZVIzZz8ZA+dc9yig6ZEJvFifFQxXo8YAd9H0PIkfi6GHAXNPKxILbzB7vVR6AbplI5NtLGOuVT/5i2e1Rn4EFu+VFtBkewhB6uqmiyUa3yqI/WAkWUTj/6JxSqYYK6D6Pv/u9RXv2COAAA=

[PSD]
ActualTwoTheta=9999
FirstUsedChannel=0
FixedPSD=0
PSDOpening=4.99171
PSDType=5

[Drive]
DriveFlags=1
DriveName=2Theta
DriveNumber=2
DriveOffset=0
OffsetIndex=0
OscillationAmplitude=0
OscillationSpeed=0
StartPosition=30.0015

[Drive]
DriveFlags=1
DriveName=Theta
DriveNumber=1
DriveOffset=0
OffsetIndex=0
OscillationAmplitude=0
OscillationSpeed=0
StartPosition=15.0007

[Drive]
DriveFlags=1
DriveName=Phi
DriveNumber=3
DriveOffset=0
OffsetIndex=0
OscillationAmplitude=0
OscillationSpeed=0
StartPosition=0

[Data]
     Angle,       PSD,
   30.0015,       699,
   30.0217,       673,
   30.0418,       718,
    30.062,       700,
   30.0822,       676,
   30.1023,       640,
   30.1225,       717,
   30.1427,       713,
   30.1628,       748,
    30.183,       646,
   30.2032,       677,
   30.2233,       710,
   30.2435,       726,
   30.2637,       697,
   30.2838,       739,
    30.304,       697,
   30.3242,       662,
   30.3444,       661,
   30.3645,       681,
   30.3847,       712,
   30.4049,       692,
    30.425,       679,
   30.4452,       680,
   30.4654,       674,
   30.4855,       726,
   30.5057,       697,
   30.5259,       727,
    30.546,       711,
   30.5662,       716,
   30.5864,       659,
   30.6065,       721,
   30.6267,       661,
   30.6469,       731,
   30.6671,       701,
   30.6872,       712,
   30.7074,       671,
   30.7276,       680,
   30.7477,       689,
   30.7679,       692,
   30.7881,       672,
   30.8082,       693,
   30.8284,       671,
   30.8486,       691,
   30.8687,       715,
   30.8889,       697,
   30.9091,       667,
   30.9292,       667,
   30.9494,       668,
   30.9696,       726,
   30.9897,       693,
   31.0099,       644,
   31.0301,       692,
   31.0503,       677,
   31.0704,       635,
   31.0906,       688,
   31.1108,       716,
   31.1309,       727,
   31.1511,       699,
   31.1713,       687,
   31.1914,       670,
   31.2116,       717,
   31.2318,       629,
   31.2519,       672,
   31.2721,       666,
   31.2923,       672,
   31.3124,       682,
   31.3326,       677,
   31.3528,       714,
   31.3729,       686,
   31.3931,       680,
   31.4133,       664,
   31.4335,       717,
   31.4536,       713,
   31.4738,       691,
    31.494,       662,
   31.5141,       691,
   31.5343,       689,
   31.5545,       750,
   31.5746,       690,
   31.5948,       708,
    31.615,       673,
   31.6351,       702,
   31.6553,       702,
   31.6755,       743,
   31.6956,       628,
   31.7158,       701,
    31.736,       678,
   31.7562,       686,
   31.7763,       638,
   31.7965,       645,
   31.8167,       689,
   31.8368,       669,
    31.857,       656,
   31.8772,       675,
   31.8973,       652,
   31.9175,       651,
   31.9377,       697,
   31.9578,       691,
    31.978,       714,
   31.9982,       666,
   32.0183,       699,
   32.0385,       684,
   32.0587,       696,
   32.0788,       728,
    32.099,       691,
   32.1192,       697,
   32.1394,       702,
   32.1595,       719,
   32.1797,       673,
   32.1999,       632,
     32.22,       653,
   32.2402,       655,
   32.2604,       669,
   32.2805,       632,
   32.3007,       663,
   32.3209,       648,
    32.341,       686,
   32.3612,       690,
   32.3814,       691,
   32.4015,       690,
   32.4217,       736,
   32.4419,       637,
    32.462,       675,
   32.4822,       632,
   32.5024,       685,
   32.5226,       690,
   32.5427,       671,
   32.5629,       692,
   32.5831,       667,
   32.6032,       690,
   32.6234,       688,
   32.6436,       596,
   32.6637,       687,
   32.6839,       716,
   32.7041,       654,
   32.7242,       630,
   32.7444,       723,
   32.7646,       652,
   32.7847,       684,
   32.8049,       691,
   32.8251,       732,
   32.8453,       650,
   32.8654,       686,
   32.8856,       657,
   32.9058,       684,
   32.9259,       689,
   32.9461,       655,
   32.9663,       722,
   32.9864,       661,
   33.0066,       730,
   33.0268,       699,
   33.0469,       672,
   33.0671,       689,
   33.0873,       682,
   33.1074,       661,
   33.1276,       660,
   33.1478,       653,
   33.1679,       683,
   33.1881,       689,
   33.2083,       685,
   33.2285,       683,
   33.2486,       675,
   33.2688,       668,
    33.289,       664,
   33.3091,       733,
   33.3293,       697,
   33.3495,       662,
   33.3696,       649,
   33.3898,       714,
     33.41,       686,
   33.4301,       776,
   33.4503,       703,
   33.4705,       689,
   33.4906,       683,
   33.5108,       691,
    33.531,       692,
   33.5511,       685,
   33.5713,       700,
   33.5915,       637,
   33.6117,       687,
   33.6318,       724,
    33.652,       724,
   33.6722,       710,
   33.6923,       661,
   33.7125,       656,
   33.7327,       666,
   33.7528,       703,
    33.773,       701,
   33.7932,       712,
   33.8133,       701,
   33.8335,       649,
   33.8537,       677,
   33.8738,       690,
    33.894,       658,
   33.9142,       707,
   33.9344,       680,
   33.9545,       715,
   33.9747,       693,
   33.9949,       677,
    34.015,       687,
   34.0352,       655,
   34.0554,       685,
   34.0755,       652,
   34.0957,       693,
   34.1159,       647,
    34.136,       645,
   34.1562,       685,
   34.1764,       641,
   34.1965,       677,
   34.2167,       653,
   34.2369,       651,
    34.257,       704,
   34.2772,       668,
   34.2974,       713,
   34.3176,       629,
   34.3377,       682,
   34.3579,       713,
   34.3781,       675,
   34.3982,       667,
   34.4184,       658,
   34.4386,       657,
   34.4587,       664,
   34.4789,       694,
   34.4991,       647,
   34.5192,       688,
   34.5394,       688,
   34.5596,       675,
   34.5797,       679,
   34.5999,       625,
   34.6201,       654,
   34.6402,       699,
   34.6604,       676,
   34.6806,       665,
   34.7008,       688,
   34.7209,       623,
   34.7411,       672,
   34.7613,       666,
   34.7814,       705,
   34.8016,       674,
   34.8218,       664,
   34.8419,       694,
   34.8621,       686,
   34.8823,       717,
   34.9024,       654,
   34.9226,       693,
   34.9428,       649,
   34.9629,       655,
   34.9831,       693,
   35.0033,       647,
   35.0235,       701,
   35.0436,       664,
   35.0638,       728,
    35.084,       658,
   35.1041,       676,
   35.1243,       742,
   35.1445,       731,
   35.1646,       649,
   35.1848,       699,
    35.205,       664,
   35.2251,       647,
   35.2453,       659,
   35.2655,       678,
   35.2856,       682,
   35.3058,       660,
    35.326,       695,
   35.3461,       694,
   35.3663,       718,
   35.3865,       681,
   35.4067,       643,
   35.4268,       717,
    35.447,       697,
   35.4672,       649,
   35.4873,       660,
   35.5075,       657,
   35.5277,       654,
   35.5478,       621,
    35.568,       652,
   35.5882,       692,
   35.6083,       685,
   35.6285,       623,
   35.6487,       720,
   35.6688,       681,
    35.689,       720,
   35.7092,       650,
   35.7294,       667,
   35.7495,       669,
   35.7697,       728,
   35.7899,       715,
     35.81,       705,
   35.8302,       627,
   35.8504,       660,
   35.8705,       696,
   35.8907,       639,
   35.9109,       710,
    35.931,       640,
   35.9512,       691,
   35.9714,       715,
   35.9915,       680,
   36.0117,       636,
   36.0319,       709,
    36.052,       713,
   36.0722,       680,
   36.0924,       687,
   36.1126,       657,
   36.1327,       685,
   36.1529,       664,
   36.1731,       718,
   36.1932,       669,
   36.2134,       688,
   36.2336,       663,
   36.2537,       681,
   36.2739,       676,
   36.2941,       627,
   36.3142,       627,
   36.3344,       666,
   36.3546,       647,
   36.3747,       645,
   36.3949,       728,
   36.4151,       656,
   36.4352,       715,
   36.4554,       651,
   36.4756,       698,
   36.4958,       688,
   36.5159,       670,
   36.5361,       631,
   36.5563,       644,
   36.5764,       644,
   36.5966,       623,
   36.6168,       632,
   36.6369,       670,
   36.6571,       690,
   36.6773,       661,
   36.6974,       693,
   36.7176,       679,
   36.7378,       670,
   36.7579,       689,
   36.7781,       660,
   36.7983,       685,
   36.8185,       644,
   36.8386,       661,
   36.8588,       711,
    36.879,       667,
   36.8991,       672,
   36.9193,       662,
   36.9395,       722,
   36.9596,       668,
   36.9798,       672,
        37,       665,
   37.0201,       655,
   37.0403,       711,
   37.0605,       669,
   37.0806,       667,
   37.1008,       667,
    37.121,       660,
   37.1411,       691,
   37.1613,       681,
   37.1815,       685,
   37.2017,       655,
   37.2218,       730,
    37.242,       638,
   37.2622,       639,
   37.2823,       713,
   37.3025,       685,
   37.3227,       648,
   37.3428,       696,
    37.363,       688,
   37.3832,       689,
   37.4033,       699,
   37.4235,       656,
   37.4437,       648,
   37.4638,       716,
    37.484,       684,
   37.5042,       686,
   37.5243,       696,
   37.5445,       717,
   37.5647,       663,
   37.5849,       630,
    37.605,       666,
   37.6252,       681,
   37.6454,       713,
   37.6655,       676,
   37.6857,       708,
   37.7059,       644,
    37.726,       691,
   37.7462,       646,
   37.7664,       705,
   37.7865,       686,
   37.8067,       672,
   37.8269,       715,
    37.847,       686,
   37.8672,       632,
   37.8874,       666,
   37.9076,       675,
   37.9277,       632,
   37.9479,       672,
   37.9681,       686,
   37.9882,       647,
   38.0084,       719,
   38.0286,       734,
   38.0487,       689,
   38.0689,       667,
   38.0891,       670,
   38.1092,       702,
   38.1294,       710,
   38.1496,       663,
   38.1697,       701,
   38.1899,       672,
   38.2101,       644,
   38.2302,       687,
   38.2504,       675,
   38.2706,       672,
   38.2908,       721,
   38.3109,       689,
   38.3311,       732,
   38.3513,       684,
   38.3714,       687,
   38.3916,       698,
   38.4118,       691,
   38.4319,       683,
   38.4521,       694,
   38.4723,       713,
   38.4924,       714,
   38.5126,       710,
   38.5328,       753,
   38.5529,       723,
   38.5731,       676,
   38.5933,       703,
   38.6134,       691,
   38.6336,       694,
   38.6538,       698,
    38.674,       705,
   38.6941,       697,
   38.7143,       698,
   38.7345,       699,
   38.7546,       681,
   38.7748,       738,
    38.795,       691,
   38.8151,       642,
   38.8353,       671,
   38.8555,       681,
   38.8756,       684,
   38.8958,       676,
    38.916,       706,
   38.9361,       683,
   38.9563,       681,
   38.9765,       723,
   38.9967,       722,
   39.0168,       707,
    39.037,       677,
   39.0572,       695,
   39.0773,       681,
   39.0975,       681,
   39.1177,       692,
   39.1378,       654,
    39.158,       686,
   39.1782,       621,
   39.1983,       761,
   39.2185,       691,
   39.2387,       692,
   39.2588,       689,
    39.279,       707,
   39.2992,       669,
   39.3193,       630,
   39.3395,       671,
   39.3597,       691,
   39.3799,       699,
      39.4,       735,
   39.4202,       689,
   39.4404,       663,
   39.4605,       714,
   39.4807,       690,
   39.5009,       698,
    39.521,       667,
   39.5412,       707,
   39.5614,       681,
   39.5815,       693,
   39.6017,       720,
   39.6219,       662,
    39.642,       714,
   39.6622,       691,
   39.6824,       675,
   39.7025,       745,
   39.7227,       726,
   39.7429,       702,
   39.7631,       678,
   39.7832,       705,
   39.8034,       697,
   39.8236,       705,
   39.8437,       704,
   39.8639,       727,
   39.8841,       723,
   39.9042,       696,
   39.9244,       733,
   39.9446,       739,
   39.9647,       743,
   39.9849,       691,
   40.0051,       672,
   40.0252,       701,
   40.0454,       681,
   40.0656,       688,
   40.0858,       690,
   40.1059,       674,
   40.1261,       701,
   40.1463,       704,
   40.1664,       655,
   40.1866,       688,
   40.2068,       693,
   40.2269,       675,
   40.2471,       756,
   40.2673,       760,
   40.2874,       722,
   40.3076,       700,
   40.3278,       720,
   40.3479,       722,
   40.3681,       759,
   40.3883,       719,
   40.4084,       686,
   40.4286,       781,
   40.4488,       740,
    40.469,       770,
   40.4891,       753,
   40.5093,       750,
   40.5295,       768,
   40.5496,       720,
   40.5698,       741,
     40.59,       661,
   40.6101,       695,
   40.6303,       747,
   40.6505,       739,
   40.6706,       756,
   40.6908,       764,
    40.711,       754,
   40.7311,       763,
   40.7513,       714,
   40.7715,       683,
   40.7917,       732,
   40.8118,       745,
    40.832,       731,
   40.8522,       693,
   40.8723,       706,
   40.8925,       724,
   40.9127,       718,
   40.9328,       743,
    40.953,       717,
   40.9732,       688,
   40.9933,       736,
   41.0135,       724,
   41.0337,       711,
   41.0538,       702,
    41.074,       721,
   41.0942,       755,
   41.1143,       703,
   41.1345,       732,
   41.1547,       761,
   41.1749,       764,
    41.195,       779,
   41.2152,       749,
   41.2354,       782,
   41.2555,       741,
   41.2757,       713,
   41.2959,       818,
    41.316,       805,
   41.3362,       779,
   41.3564,       777,
   41.3765,       796,
   41.3967,       841,
   41.4169,       796,
    41.437,       865,
   41.4572,       851,
   41.4774,       818,
   41.4975,       851,
   41.5177,       837,
   41.5379,       828,
   41.5581,       852,
   41.5782,       834,
   41.5984,       902,
   41.6186,       889,
   41.6387,       867,
   41.6589,       852,
   41.6791,       853,
   41.6992,       863,
   41.7194,       833,
   41.7396,       943,
   41.7597,       867,
   41.7799,       917,
   41.8001,       904,
   41.8202,       942,
   41.8404,       903,
   41.8606,       891,
   41.8808,       870,
   41.9009,       948,
   41.9211,       919,
   41.9413,       944,
   41.9614,       937,
   41.9816,       905,
   42.0018,       889,
   42.0219,       937,
   42.0421,       952,
   42.0623,       931,
   42.0824,       945,
   42.1026,       903,
   42.1228,       994,
   42.1429,      1024,
   42.1631,      1037,
   42.1833,       996,
   42.2034,      1051,
   42.2236,      1034,
   42.2438,      1079,
    42.264,      1131,
   42.2841,      1082,
   42.3043,      1107,
   42.3245,      1142,
   42.3446,      1201,
   42.3648,      1178,
    42.385,      1351,
   42.4051,      1267,
   42.4253,      1346,
   42.4455,      1439,
   42.4656,      1480,
   42.4858,      1536,
    42.506,      1600,
   42.5261,      1690,
   42.5463,      1780,
   42.5665,      1860,
   42.5866,      1906,
   42.6068,      2131,
    42.627,      2384,
   42.6472,      2494,
   42.6673,      2746,
   42.6875,      3058,
   42.7077,      3385,
   42.7278,      3811,
    42.748,      4353,
   42.7682,      4848,
   42.7883,      5663,
   42.8085,      6515,
   42.8287,      7843,
   42.8488,      9376,
    42.869,     11251,
   42.8892,     13360,
   42.9093,     15896,
   42.9295,     17539,
   42.9497,     16941,
   42.9699,     15901,
     42.99,     14913,
   43.0102,     14490,
   43.0304,     14060,
   43.0505,     13124,
   43.0707,     11589,
   43.0909,      9934,
    43.111,      8385,
   43.1312,      7287,
   43.1514,      6250,
   43.1715,      5428,
   43.1917,      4718,
   43.2119,      4084,
    43.232,      3734,
   43.2522,      3219,
   43.2724,      2933,
   43.2925,      2623,
   43.3127,      2434,
   43.3329,      2265,
   43.3531,      2082,
   43.3732,      1961,
   43.3934,      1826,
   43.4136,      1809,
   43.4337,      1684,
   43.4539,      1597,
   43.4741,      1505,
   43.4942,      1461,
   43.5144,      1428,
   43.5346,      1322,
   43.5547,      1251,
   43.5749,      1246,
   43.5951,      1257,
   43.6152,      1164,
   43.6354,      1177,
   43.6556,      1147,
   43.6757,      1156,
   43.6959,      1064,
   43.7161,      1116,
   43.7363,      1077,
   43.7564,      1079,
   43.7766,      1033,
   43.7968,      1061,
   43.8169,       937,
   43.8371,       947,
   43.8573,      1048,
   43.8774,       954,
   43.8976,       943,
   43.9178,       943,
   43.9379,       927,
   43.9581,      1026,
   43.9783,       980,
   43.9984,       935,
   44.0186,       954,
   44.0388,       944,
    44.059,       885,
   44.0791,       928,
   44.0993,       901,
   44.1195,       932,
   44.1396,       878,
   44.1598,       901,
     44.18,       890,
   44.2001,       899,
   44.2203,       836,
   44.2405,       851,
   44.2606,       820,
   44.2808,       900,
    44.301,       867,
   44.3211,       840,
   44.3413,       849,
   44.3615,       825,
   44.3816,       879,
   44.4018,       877,
    44.422,       795,
   44.4422,       781,
   44.4623,       818,
   44.4825,       868,
   44.5027,       844,
   44.5228,       801,
    44.543,       791,
   44.5632,       815,
   44.5833,       837,
   44.6035,       826,
   44.6237,       794,
   44.6438,       842,
    44.664,       787,
   44.6842,       835,
   44.7043,       794,
   44.7245,       876,
   44.7447,       797,
   44.7648,       828,
    44.785,       790,
   44.8052,       790,
   44.8254,       858,
   44.8455,       834,
   44.8657,       796,
   44.8859,       820,
    44.906,       860,
   44.9262,       785,
   44.9464,       813,
   44.9665,       780,
   44.9867,       831,
   45.0069,       772,
    45.027,       806,
   45.0472,       852,
   45.0674,       778,
   45.0875,       764,
   45.1077,       739,
   45.1279,       781,
   45.1481,       752,
   45.1682,       803,
   45.1884,       774,
   45.2086,       799,
   45.2287,       844,
   45.2489,       716,
   45.2691,       748,
   45.2892,       740,
   45.3094,       783,
   45.3296,       766,
   45.3497,       767,
   45.3699,       808,
   45.3901,       799,
   45.4102,       784,
   45.4304,       751,
   45.4506,       748,
   45.4707,       761,
   45.4909,       780,
   45.5111,       776,
   45.5313,       820,
   45.5514,       796,
   45.5716,       707,
   45.5918,       759,
   45.6119,       796,
   45.6321,       777,
   45.6523,       776,
   45.6724,       784,
   45.6926,       769,
   45.7128,       735,
   45.7329,       794,
   45.7531,       734,
   45.7733,       793,
   45.7934,       807,
   45.8136,       722,
   45.8338,       720,
    45.854,       819,
   45.8741,       755,
   45.8943,       746,
   45.9145,       720,
   45.9346,       769,
   45.9548,       774,
    45.975,       755,
   45.9951,       731,
   46.0153,       716,
   46.0355,       721,
   46.0556,       719,
   46.0758,       750,
    46.096,       770,
   46.1161,       755,
   46.1363,       728,
   46.1565,       746,
   46.1766,       751,
   46.1968,       750,
    46.217,       754,
   46.2372,       759,
   46.2573,       770,
   46.2775,       768,
   46.2977,       753,
   46.3178,       736,
    46.338,       718,
   46.3582,       684,
   46.3783,       715,
   46.3985,       737,
   46.4187,       770,
   46.4388,       700,
    46.459,       745,
   46.4792,       748,
   46.4993,       746,
   46.5195,       773,
   46.5397,       785,
   46.5598,       752,
     46.58,       751,
   46.6002,       746,
   46.6204,       720,
   46.6405,       774,
   46.6607,       745,
   46.6809,       761,
    46.701,       775,
   46.7212,       744,
   46.7414,       739,
   46.7615,       718,
   46.7817,       712,
   46.8019,       805,
    46.822,       790,
   46.8422,       753,
   46.8624,       741,
   46.8825,       785,
   46.9027,       736,
   46.9229,       740,
   46.9431,       777,
   46.9632,       712,
   46.9834,       678,
   47.0036,       729,
   47.0237,       791,
   47.0439,       724,
   47.0641,       746,
   47.0842,       761,
   47.1044,       735,
   47.1246,       739,
   47.1447,       686,
   47.1649,       754,
   47.1851,       770,
   47.2052,       767,
   47.2254,       772,
   47.2456,       738,
   47.2657,       716,
   47.2859,       722,
   47.3061,       750,
   47.3263,       735,
   47.3464,       741,
   47.3666,       676,
   47.3868,       677,
   47.4069,       701,
   47.4271,       725,
   47.4473,       724,
   47.4674,       759,
   47.4876,       751,
   47.5078,       757,
   47.5279,       766,
   47.5481,       741,
   47.5683,       718,
   47.5884,       725,
   47.6086,       753,
   47.6288,       726,
   47.6489,       715,
   47.6691,       725,
   47.6893,       748,
   47.7095,       778,
   47.7296,       695,
   47.7498,       737,
     47.77,       753,
   47.7901,       693,
   47.8103,       718,
   47.8305,       791,
   47.8506,       762,
   47.8708,       784,
    47.891,       775,
   47.9111,       757,
   47.9313,       764,
   47.9515,       739,
   47.9716,       734,
   47.9918,       751,
    48.012,       771,
   48.0322,       763,
   48.0523,       811,
   48.0725,       728,
   48.0927,       737,
   48.1128,       707,
    48.133,       725,
   48.1532,       727,
   48.1733,       744,
   48.1935,       708,
   48.2137,       839,
   48.2338,       842,
    48.254,       770,
   48.2742,       740,
   48.2943,       730,
   48.3145,       732,
   48.3347,       808,
   48.3548,       824,
    48.375,       774,
   48.3952,       771,
   48.4154,       778,
   48.4355,       792,
   48.4557,       765,
   48.4759,       775,
    48.496,       749,
   48.5162,       764,
   48.5364,       791,
   48.5565,       779,
   48.5767,       756,
   48.5969,       795,
    48.617,       773,
   48.6372,       791,
   48.6574,       806,
   48.6775,       761,
   48.6977,       807,
   48.7179,       783,
    48.738,       783,
   48.7582,       847,
   48.7784,       816,
   48.7986,       804,
   48.8187,       785,
   48.8389,       814,
   48.8591,       832,
   48.8792,       802,
   48.8994,       836,
   48.9196,       810,
   48.9397,       872,
   48.9599,       822,
   48.9801,       838,
   49.0002,       872,
   49.0204,       845,
   49.0406,       860,
   49.0607,       922,
   49.0809,       884,
   49.1011,       882,
   49.1213,       883,
   49.1414,       874,
   49.1616,       851,
   49.1818,       883,
   49.2019,       890,
   49.2221,       933,
   49.2423,       938,
   49.2624,       933,
   49.2826,       961,
   49.3028,       931,
   49.3229,      1004,
   49.3431,      1011,
   49.3633,      1007,
   49.3834,      1034,
   49.4036,      1015,
   49.4238,      1055,
   49.4439,      1033,
   49.4641,      1096,
   49.4843,      1111,
   49.5045,      1168,
   49.5246,      1206,
   49.5448,      1178,
    49.565,      1282,
   49.5851,      1405,
   49.6053,      1356,
   49.6255,      1434,
   49.6456,      1461,
   49.6658,      1468,
    49.686,      1542,
   49.7061,      1600,
   49.7263,      1776,
   49.7465,      1837,
   49.7666,      1890,
   49.7868,      2017,
    49.807,      2159,
   49.8271,      2232,
   49.8473,      2381,
   49.8675,      2588,
   49.8877,      2761,
   49.9078,      2857,
    49.928,      3050,
   49.9482,      3179,
   49.9683,      3475,
   49.9885,      3582,
   50.0087,      3774,
   50.0288,      3990,
    50.049,      4210,
   50.0692,      4317,
   50.0893,      4212,
   50.1095,      4177,
   50.1297,      4095,
   50.1498,      4030,
     50.17,      4047,
   50.1902,      3805,
   50.2104,      3664,
   50.2305,      3595,
   50.2507,      3323,
   50.2709,      3170,
    50.291,      2979,
   50.3112,      2916,
   50.3314,      2599,
   50.3515,      2470,
   50.3717,      2366,
   50.3919,      2166,
    50.412,      2107,
   50.4322,      1978,
   50.4524,      1757,
   50.4725,      1781,
   50.4927,      1678,
   50.5129,      1610,
    50.533,      1488,
   50.5532,      1439,
   50.5734,      1453,
   50.5936,      1333,
   50.6137,      1231,
   50.6339,      1233,
   50.6541,      1232,
   50.6742,      1141,
   50.6944,      1105,
   50.7146,      1097,
   50.7347,      1086,
   50.7549,       978,
   50.7751,       991,
   50.7952,       986,
   50.8154,       979,
   50.8356,       905,
   50.8557,       921,
   50.8759,       903,
   50.8961,       901,
   50.9163,       933,
   50.9364,       841,
   50.9566,       854,
   50.9768,       796,
   50.9969,       784,
   51.0171,       847,
   51.0373,       831,
   51.0574,       823,
   51.0776,       847,
   51.0978,       835,
   51.1179,       859,
   51.1381,       804,
   51.1583,       805,
   51.1784,       776,
   51.1986,       821,
   51.2188,       780,
   51.2389,       759,
   51.2591,       805,
   51.2793,       762,
   51.2995,       721,
   51.3196,       791,
   51.3398,       737,
     51.36,       766,
   51.3801,       809,
   51.4003,       749,
   51.4205,       711,
   51.4406,       726,
   51.4608,       732,
    51.481,       685,
   51.5011,       754,
   51.5213,       750,
   51.5415,       759,
   51.5616,       757,
   51.5818,       722,
    51.602,       704,
   51.6221,       707,
   51.6423,       720,
   51.6625,       727,
   51.6827,       758,
   51.7028,       709,
    51.723,       750,
   51.7432,       699,
   51.7633,       757,
   51.7835,       738,
   51.8037,       767,
   51.8238,       714,
    51.844,       699,
   51.8642,       713,
   51.8843,       706,
   51.9045,       696,
   51.9247,       728,
   51.9448,       699,
    51.965,       647,
   51.9852,       735,
   52.0054,       720,
   52.0255,       709,
   52.0457,       697,
   52.0659,       707,
    52.086,       692,
   52.1062,       697,
   52.1264,       739,
   52.1465,       693,
   52.1667,       718,
   52.1869,       748,
    52.207,       676,
   52.2272,       699,
   52.2474,       721,
   52.2675,       667,
   52.2877,       739,
   52.3079,       697,
    52.328,       691,
   52.3482,       695,
   52.3684,       699,
   52.3886,       692,
   52.4087,       715,
   52.4289,       693,
   52.4491,       724,
   52.4692,       712,
   52.4894,       658,
   52.5096,       664,
   52.5297,       705,
   52.5499,       706,
   52.5701,       632,
   52.5902,       680,
   52.6104,       717,
   52.6306,       691,
   52.6507,       651,
   52.6709,       677,
   52.6911,       711,
   52.7112,       675,
   52.7314,       688,
   52.7516,       650,
   52.7718,       697,
   52.7919,       690,
   52.8121,       672,
   52.8323,       692,
   52.8524,       666,
   52.8726,       661,
   52.8928,       647,
   52.9129,       708,
   52.9331,       665,
   52.9533,       696,
   52.9734,       714,
   52.9936,       693,
   53.0138,       708,
   53.0339,       721,
   53.0541,       664,
   53.0743,       699,
   53.0945,       686,
   53.1146,       659,
   53.1348,       736,
    53.155,       697,
   53.1751,       690,
   53.1953,       754,
   53.2155,       678,
   53.2356,       674,
   53.2558,       679,
    53.276,       662,
   53.2961,       679,
   53.3163,       739,
   53.3365,       696,
   53.3566,       705,
   53.3768,       678,
    53.397,       691,
   53.4171,       647,
   53.4373,       749,
   53.4575,       649,
   53.4777,       645,
   53.4978,       689,
    53.518,       688,
   53.5382,       668,
   53.5583,       625,
   53.5785,       705,
   53.5987,       697,
   53.6188,       665,
    53.639,       678,
   53.6592,       717,
   53.6793,       663,
   53.6995,       692,
   53.7197,       663,
   53.7398,       687,
     53.76,       707,
   53.7802,       659,
   53.8003,       700,
   53.8205,       673,
   53.8407,       673,
   53.8609,       670,
    53.881,       631,
   53.9012,       687,
   53.9214,       670,
   53.9415,       704,
   53.9617,       657,
   53.9819,       687,
    54.002,       684,
   54.0222,       669,
   54.0424,       699,
   54.0625,       724,
   54.0827,       660,
   54.1029,       676,
    54.123,       634,
   54.1432,       685,
   54.1634,       658,
   54.1836,       633,
   54.2037,       643,
   54.2239,       674,
   54.2441,       674,
   54.2642,       674,
   54.2844,       643,
   54.3046,       643,
   54.3247,       680,
   54.3449,       672,
   54.3651,       657,
   54.3852,       672,
   54.4054,       677,
   54.4256,       659,
   54.4457,       671,
   54.4659,       660,
   54.4861,       660,
   54.5062,       655,
   54.5264,       686,
   54.5466,       654,
   54.5668,       643,
   54.5869,       646,
   54.6071,       674,
   54.6273,       631,
   54.6474,       686,
   54.6676,       646,
   54.6878,       668,
   54.7079,       655,
   54.7281,       626,
   54.7483,       683,
   54.7684,       705,
   54.7886,       636,
   54.8088,       653,
   54.8289,       698,
   54.8491,       707,
   54.8693,       675,
   54.8894,       670,
   54.9096,       719,
   54.9298,       652,
     54.95,       660,
   54.9701,       621,
   54.9903,       679,
   55.0105,       621,
   55.0306,       688,
   55.0508,       672,
    55.071,       686,
   55.0911,       691,
   55.1113,       647,
   55.1315,       642,
   55.1516,       650,
   55.1718,       667,
    55.192,       687,
   55.2121,       665,
   55.2323,       651,
   55.2525,       681,
   55.2727,       672,
   55.2928,       644,
    55.313,       659,
   55.3332,       678,
   55.3533,       657,
   55.3735,       610,
   55.3937,       633,
   55.4138,       649,
    55.434,       653,
   55.4542,       656,
   55.4743,       674,
   55.4945,       683,
   55.5147,       644,
   55.5348,       609,
    55.555,       658,
   55.5752,       584,
   55.5953,       675,
   55.6155,       694,
   55.6357,       694,
   55.6559,       636,
    55.676,       646,
   55.6962,       663,
   55.7164,       640,
   55.7365,       639,
   55.7567,       681,
   55.7769,       612,
    55.797,       682,
   55.8172,       598,
   55.8374,       686,
   55.8575,       656,
   55.8777,       606,
   55.8979,       651,
    55.918,       709,
   55.9382,       645,
   55.9584,       658,
   55.9786,       674,
   55.9987,       659,
   56.0189,       643,
   56.0391,       632,
   56.0592,       659,
   56.0794,       666,
   56.0996,       690,
   56.1197,       671,
   56.1399,       656,
   56.1601,       636,
   56.1802,       654,
   56.2004,       644,
   56.2206,       614,
   56.2407,       680,
   56.2609,       650,
   56.2811,       634,
   56.3012,       646,
   56.3214,       709,
   56.3416,       591,
   56.3618,       632,
   56.3819,       664,
   56.4021,       654,
   56.4223,       650,
   56.4424,       595,
   56.4626,       648,
   56.4828,       680,
   56.5029,       673,
   56.5231,       681,
   56.5433,       662,
   56.5634,       675,
   56.5836,       627,
   56.6038,       664,
   56.6239,       674,
   56.6441,       650,
   56.6643,       642,
   56.6844,       667,
   56.7046,       630,
   56.7248,       699,
    56.745,       676,
   56.7651,       644,
   56.7853,       642,
   56.8055,       675,
   56.8256,       637,
   56.8458,       601,
    56.866,       632,
   56.8861,       659,
   56.9063,       645,
   56.9265,       660,
   56.9466,       647,
   56.9668,       672,
    56.987,       626,
   57.0071,       626,
   57.0273,       686,
   57.0475,       630,
   57.0677,       632,
   57.0878,       660,
    57.108,       677,
   57.1282,       628,
   57.1483,       629,
   57.1685,       685,
   57.1887,       636,
   57.2088,       621,
    57.229,       638,
   57.2492,       654,
   57.2693,       661,
   57.2895,       678,
   57.3097,       638,
   57.3298,       637,
     57.35,       654,
   57.3702,       616,
   57.3903,       638,
   57.4105,       660,
   57.4307,       630,
   57.4509,       639,
    57.471,       660,
   57.4912,       653,
   57.5114,       639,
   57.5315,       647,
   57.5517,       630,
   57.5719,       633,
    57.592,       635,
   57.6122,       634,
   57.6324,       627,
   57.6525,       646,
   57.6727,       619,
   57.6929,       662,
    57.713,       646,
   57.7332,       613,
   57.7534,       647,
   57.7735,       620,
   57.7937,       637,
   57.8139,       650,
   57.8341,       618,
   57.8542,       688,
   57.8744,       680,
   57.8946,       634,
   57.9147,       628,
   57.9349,       652,
   57.9551,       668,
   57.9752,       643,
   57.9954,       693,
   58.0156,       652,
   58.0357,       640,
   58.0559,       651,
   58.0761,       643,
   58.0962,       667,
   58.1164,       631,
   58.1366,       659,
   58.1568,       695,
   58.1769,       674,
   58.1971,       683,
   58.2173,       644,
   58.2374,       656,
   58.2576,       700,
   58.2778,       629,
   58.2979,       646,
   58.3181,       666,
   58.3383,       639,
   58.3584,       672,
   58.3786,       648,
   58.3988,       608,
   58.4189,       660,
   58.4391,       639,
   58.4593,       629,
   58.4794,       631,
   58.4996,       649,
   58.5198,       672,
     58.54,       626,
   58.5601,       638,
   58.5803,       694,
   58.6005,       622,
   58.6206,       648,
   58.6408,       700,
    58.661,       660,
   58.6811,       642,
   58.7013,       643,
   58.7215,       636,
   58.7416,       677,
   58.7618,       678,
    58.782,       615,
   58.8021,       702,
   58.8223,       600,
   58.8425,       655,
   58.8626,       633,
   58.8828,       638,
    58.903,       669,
   58.9232,       654,
   58.9433,       650,
   58.9635,       663,
   58.9837,       635,
   59.0038,       689,
    59.024,       665,
   59.0442,       651,
   59.0643,       650,
   59.0845,       625,
   59.1047,       657,
   59.1248,       638,
    59.145,       641,
   59.1652,       597,
   59.1853,       607,
   59.2055,       690,
   59.2257,       644,
   59.2459,       613,
    59.266,       670,
   59.2862,       655,
   59.3064,       643,
   59.3265,       649,
   59.3467,       611,
   59.3669,       646,
    59.387,       619,
   59.4072,       624,
   59.4274,       612,
   59.4475,       651,
   59.4677,       623,
   59.4879,       670,
    59.508,       652,
   59.5282,       620,
   59.5484,       643,
   59.5685,       693,
   59.5887,       631,
   59.6089,       620,
   59.6291,       630,
   59.6492,       655,
   59.6694,       626,
   59.6896,       679,
   59.7097,       705,
   59.7299,       646,
   59.7501,       659,
   59.7702,       654,
   59.7904,       676,
   59.8106,       653,
   59.8307,       635,
   59.8509,       681,
   59.8711,       655,
   59.8912,       629,
   59.9114,       635,
   59.9316,       663,
   59.9517,       632,
   59.9719,       611,
   59.9921,       666,
   60.0123,       653,
   60.0324,       661,
   60.0526,       623,
   60.0728,       608,
   60.0929,       627,
   60.1131,       632,
   60.1333,       619,
   60.1534,       614,
   60.1736,       648,
   60.1938,       716,
   60.2139,       634,
   60.2341,       654,
   60.2543,       635,
   60.2744,       668,
   60.2946,       633,
   60.3148,       614,
    60.335,       659,
   60.3551,       678,
   60.3753,       651,
   60.3955,       655,
   60.4156,       672,
   60.4358,       647,
    60.456,       661,
   60.4761,       663,
   60.4963,       666,
   60.5165,       658,
   60.5366,       655,
   60.5568,       610,
    60.577,       632,
   60.5971,       643,
   60.6173,       655,
   60.6375,       633,
   60.6576,       638,
   60.6778,       647,
    60.698,       628,
   60.7182,       651,
   60.7383,       630,
   60.7585,       646,
   60.7787,       644,
   60.7988,       633,
    60.819,       632,
   60.8392,       626,
   60.8593,       641,
   60.8795,       660,
   60.8997,       607,
   60.9198,       612,
     60.94,       665,
   60.9602,       634,
   60.9803,       611,
   61.0005,       632,
   61.0207,       629,
   61.0409,       690,
    61.061,       654,
   61.0812,       590,
   61.1014,       626,
   61.1215,       597,
   61.1417,       613,
   61.1619,       621,
    61.182,       676,
   61.2022,       626,
   61.2224,       639,
   61.2425,       657,
   61.2627,       657,
   61.2829,       648,
    61.303,       640,
   61.3232,       667,
   61.3434,       672,
   61.3635,       666,
   61.3837,       640,
   61.4039,       642,
   61.4241,       624,
   61.4442,       636,
   61.4644,       635,
   61.4846,       617,
   61.5047,       630,
   61.5249,       697,
   61.5451,       667,
   61.5652,       631,
   61.5854,       619,
   61.6056,       639,
   61.6257,       680,
   61.6459,       662,
   61.6661,       643,
   61.6862,       622,
   61.7064,       613,
   61.7266,       614,
   61.7467,       634,
   61.7669,       648,
   61.7871,       692,
   61.8073,       633,
   61.8274,       626,
   61.8476,       675,
   61.8678,       612,
   61.8879,       637,
   61.9081,       647,
   61.9283,       695,
   61.9484,       621,
   61.9686,       642,
   61.9888,       641,
   62.0089,       625,
   62.0291,       583,
   62.0493,       632,
   62.0694,       617,
   62.0896,       609,
   62.1098,       602,
     62.13,       597,
   62.1501,       656,
   62.1703,       609,
   62.1905,       618,
   62.2106,       654,
   62.2308,       600,
    62.251,       616,
   62.2711,       689,
   62.2913,       632,
   62.3115,       638,
   62.3316,       674,
   62.3518,       639,
    62.372,       672,
   62.3921,       645,
   62.4123,       648,
   62.4325,       642,
   62.4526,       648,
   62.4728,       681,
    62.493,       611,
   62.5132,       614,
   62.5333,       646,
   62.5535,       644,
   62.5737,       624,
   62.5938,       647,
    62.614,       632,
   62.6342,       648,
   62.6543,       624,
   62.6745,       641,
   62.6947,       678,
   62.7148,       629,
    62.735,       577,
   62.7552,       641,
   62.7753,       617,
   62.7955,       607,
   62.8157,       626,
   62.8358,       626,
    62.856,       648,
   62.8762,       605,
   62.8964,       629,
   62.9165,       616,
   62.9367,       612,
   62.9569,       687,
    62.977,       633,
   62.9972,       618,
   63.0174,       594,
   63.0375,       667,
   63.0577,       597,
   63.0779,       649,
    63.098,       642,
   63.1182,       660,
   63.1384,       617,
   63.1585,       616,
   63.1787,       643,
   63.1989,       605,
   63.2191,       630,
   63.2392,       673,
   63.2594,       595,
   63.2796,       644,
   63.2997,       631,
   63.3199,       633,
   63.3401,       623,
   63.3602,       648,
   63.3804,       646,
   63.4006,       663,
   63.4207,       639,
   63.4409,       650,
   63.4611,       620,
   63.4812,       610,
   63.5014,       644,
   63.5216,       695,
   63.5417,       633,
   63.5619,       631,
   63.5821,       648,
   63.6023,       672,
   63.6224,       655,
   63.6426,       612,
   63.6628,       631,
   63.6829,       634,
   63.7031,       612,
   63.7233,       671,
   63.7434,       608,
   63.7636,       650,
   63.7838,       631,
   63.8039,       668,
   63.8241,       614,
   63.8443,       633,
   63.8644,       615,
   63.8846,       636,
   63.9048,       609,
   63.9249,       652,
   63.9451,       628,
   63.9653,       627,
   63.9855,       617,
   64.0056,       648,
   64.0258,       652,
    64.046,       656,
   64.0661,       666,
   64.0863,       629,
   64.1065,       611,
   64.1266,       645,
   64.1468,       627,
    64.167,       637,
   64.1871,       605,
   64.2073,       662,
   64.2275,       641,
   64.2476,       617,
   64.2678,       683,
    64.288,       619,
   64.3082,       626,
   64.3283,       652,
   64.3485,       676,
   64.3687,       679,
   64.3888,       686,
    64.409,       655,
   64.4292,       599,
   64.4493,       596,
   64.4695,       653,
   64.4897,       617,
   64.5098,       643,
     64.53,       712,
   64.5502,       639,
   64.5703,       616,
   64.5905,       613,
   64.6107,       646,
   64.6308,       659,
    64.651,       658,
   64.6712,       676,
   64.6914,       625,
   64.7115,       633,
   64.7317,       616,
   64.7519,       636,
    64.772,       635,
   64.7922,       628,
   64.8124,       630,
   64.8325,       655,
   64.8527,       654,
   64.8729,       633,
    64.893,       602,
   64.9132,       686,
   64.9334,       594,
   64.9535,       663,
   64.9737,       634,
   64.9939,       633,
    65.014,       633,
   65.0342,       647,
   65.0544,       663,
   65.0746,       639,
   65.0947,       642,
   65.1149,       634,
   65.1351,       590,
   65.1552,       678,
   65.1754,       634,
   65.1956,       654,
   65.2157,       622,
   65.2359,       653,
   65.2561,       647,
   65.2762,       643,
   65.2964,       634,
   65.3166,       659,
   65.3367,       639,
   65.3569,       603,
   65.3771,       671,
   65.3973,       650,
   65.4174,       585,
   65.4376,       681,
   65.4578,       596,
   65.4779,       638,
   65.4981,       638,
   65.5183,       678,
   65.5384,       634,
   65.5586,       641,
   65.5788,       630,
   65.5989,       627,
   65.6191,       683,
   65.6393,       655,
   65.6594,       582,
   65.6796,       657,
   65.6998,       651,
   65.7199,       635,
   65.7401,       643,
   65.7603,       613,
   65.7805,       634,
   65.8006,       594,
   65.8208,       610,
    65.841,       630,
   65.8611,       643,
   65.8813,       661,
   65.9015,       596,
   65.9216,       631,
   65.9418,       626,
    65.962,       622,
   65.9821,       638,
   66.0023,       651,
   66.0225,       640,
   66.0426,       640,
   66.0628,       681,
    66.083,       598,
   66.1032,       641,
   66.1233,       659,
   66.1435,       642,
   66.1637,       654,
   66.1838,       650,
    66.204,       640,
   66.2242,       649,
   66.2443,       638,
   66.2645,       644,
   66.2847,       626,
   66.3048,       644,
    66.325,       636,
   66.3452,       639,
   66.3653,       611,
   66.3855,       614,
   66.4057,       597,
   66.4258,       601,
    66.446,       631,
   66.4662,       684,
   66.4864,       621,
   66.5065,       671,
   66.5267,       634,
   66.5469,       603,
    66.567,       629,
   66.5872,       631,
   66.6074,       655,
   66.6275,       609,
   66.6477,       619,
   66.6679,       647,
    66.688,       625,
   66.7082,       662,
   66.7284,       639,
   66.7485,       646,
   66.7687,       585,
   66.7889,       644,
    66.809,       668,
   66.8292,       639,
   66.8494,       641,
   66.8696,       633,
   66.8897,       626,
   66.9099,       631,
   66.9301,       608,
   66.9502,       630,
   66.9704,       611,
   66.9906,       632,
   67.0107,       641,
   67.0309,       608,
   67.0511,       633,
   67.0712,       614,
   67.0914,       645,
   67.1116,       613,
   67.1317,       578,
   67.1519,       612,
   67.1721,       626,
   67.1923,       618,
   67.2124,       595,
   67.2326,       699,
   67.2528,       625,
   67.2729,       650,
   67.2931,       640,
   67.3133,       611,
   67.3334,       591,
   67.3536,       627,
   67.3738,       620,
   67.3939,       661,
   67.4141,       668,
   67.4343,       636,
   67.4544,       663,
   67.4746,       632,
   67.4948,       651,
   67.5149,       637,
   67.5351,       673,
   67.5553,       607,
   67.5755,       602,
   67.5956,       640,
   67.6158,       613,
    67.636,       656,
   67.6561,       627,
   67.6763,       654,
   67.6965,       634,
   67.7166,       618,
   67.7368,       656,
    67.757,       660,
   67.7771,       621,
   67.7973,       656,
   67.8175,       653,
   67.8376,       651,
   67.8578,       590,
    67.878,       641,
   67.8981,       592,
   67.9183,       656,
   67.9385,       650,
   67.9587,       637,
   67.9788,       649,
    67.999,       666,
   68.0192,       631,
   68.0393,       607,
   68.0595,       622,
   68.0797,       614,
   68.0998,       608,
     68.12,       655,
   68.1402,       613,
   68.1603,       636,
   68.1805,       636,
   68.2007,       665,
   68.2208,       621,
    68.241,       652,
   68.2612,       656,
   68.2814,       650,
   68.3015,       616,
   68.3217,       601,
   68.3419,       617,
    68.362,       644,
   68.3822,       648,
   68.4024,       652,
   68.4225,       675,
   68.4427,       635,
   68.4629,       666,
    68.483,       617,
   68.5032,       617,
   68.5234,       634,
   68.5435,       672,
   68.5637,       658,
   68.5839,       614,
    68.604,       680,
   68.6242,       631,
   68.6444,       647,
   68.6646,       595,
   68.6847,       642,
   68.7049,       681,
   68.7251,       640,
   68.7452,       657,
   68.7654,       602,
   68.7856,       619,
   68.8057,       597,
   68.8259,       595,
   68.8461,       647,
   68.8662,       635,
   68.8864,       635,
   68.9066,       651,
   68.9267,       591,
   68.9469,       641,
   68.9671,       624,
   68.9872,       609,
   69.0074,       649,
   69.0276,       674,
   69.0478,       616,
   69.0679,       647,
   69.0881,       643,
   69.1083,       655,
   69.1284,       605,
   69.1486,       641,
   69.1688,       655,
   69.1889,       630,
   69.2091,       660,
   69.2293,       638,
   69.2494,       628,
   69.2696,       653,
   69.2898,       591,
   69.3099,       607,
   69.3301,       612,
   69.3503,       627,
   69.3705,       619,
   69.3906,       621,
   69.4108,       619,
    69.431,       635,
   69.4511,       662,
   69.4713,       626,
   69.4915,       636,
   69.5116,       701,
   69.5318,       643,
    69.552,       644,
   69.5721,       620,
   69.5923,       608,
   69.6125,       664,
   69.6326,       610,
   69.6528,       601,
    69.673,       647,
   69.6931,       694,
   69.7133,       639,
   69.7335,       606,
   69.7537,       627,
   69.7738,       620,
    69.794,       637,
   69.8142,       631,
   69.8343,       630,
   69.8545,       638,
   69.8747,       633,
   69.8948,       660,
    69.915,       636,
   69.9352,       651,
   69.9553,       631,
   69.9755,       642,
   69.9957,       691,
   70.0158,       671,
    70.036,       649,
   70.0562,       632,
   70.0763,       622,
   70.0965,       619,
   70.1167,       587,
   70.1369,       591,
    70.157,       598,
   70.1772,       720,
   70.1974,       641,
   70.2175,       621,
   70.2377,       639,
   70.2579,       659,
    70.278,       613,
   70.2982,       597,
   70.3184,       631,
   70.3385,       668,
   70.3587,       608,
   70.3789,       659,
    70.399,       618,
   70.4192,       650,
   70.4394,       672,
   70.4596,       626,
   70.4797,       618,
   70.4999,       631,
   70.5201,       613,
   70.5402,       664,
   70.5604,       672,
   70.5806,       605,
   70.6007,       645,
   70.6209,       645,
   70.6411,       641,
   70.6612,       659,
   70.6814,       659,
   70.7016,       654,
   70.7217,       638,
   70.7419,       665,
   70.7621,       655,
   70.7822,       641,
   70.8024,       625,
   70.8226,       638,
   70.8428,       639,
   70.8629,       641,
   70.8831,       650,
   70.9033,       617,
   70.9234,       682,
   70.9436,       622,
   70.9638,       654,
   70.9839,       610,
   71.0041,       640,
   71.0243,       674,
   71.0444,       661,
   71.0646,       636,
   71.0848,       643,
   71.1049,       651,
   71.1251,       594,
   71.1453,       615,
   71.1654,       657,
   71.1856,       589,
   71.2058,       649,
    71.226,       643,
   71.2461,       649,
   71.2663,       639,
   71.2865,       683,
   71.3066,       718,
   71.3268,       635,
    71.347,       613,
   71.3671,       645,
   71.3873,       658,
   71.4075,       642,
   71.4276,       669,
   71.4478,       644,
    71.468,       644,
   71.4881,       658,
   71.5083,       673,
   71.5285,       613,
   71.5487,       632,
   71.5688,       639,
    71.589,       648,
   71.6092,       676,
   71.6293,       668,
   71.6495,       678,
   71.6697,       657,
   71.6898,       668,
     71.71,       629,
   71.7302,       655,
   71.7503,       649,
   71.7705,       670,
   71.7907,       650,
   71.8108,       601,
    71.831,       671,
   71.8512,       611,
   71.8713,       638,
   71.8915,       666,
   71.9117,       650,
   71.9319,       658,
    71.952,       638,
   71.9722,       646,
   71.9924,       644,
   72.0125,       605,
   72.0327,       676,
   72.0529,       629,
    72.073,       650,
   72.0932,       687,
   72.1134,       635,
   72.1335,       660,
   72.1537,       635,
   72.1739,       639,
    72.194,       630,
   72.2142,       667,
   72.2344,       667,
   72.2546,       663,
   72.2747,       665,
   72.2949,       663,
   72.3151,       652,
   72.3352,       659,
   72.3554,       713,
   72.3756,       667,
   72.3957,       620,
   72.4159,       654,
   72.4361,       650,
   72.4562,       673,
   72.4764,       658,
   72.4966,       663,
   72.5167,       586,
   72.5369,       626,
   72.5571,       670,
   72.5772,       657,
   72.5974,       709,
   72.6176,       711,
   72.6378,       690,
   72.6579,       694,
   72.6781,       669,
   72.6983,       647,
   72.7184,       661,
   72.7386,       672,
   72.7588,       699,
   72.7789,       651,
   72.7991,       651,
   72.8193,       695,
   72.8394,       668,
   72.8596,       686,
   72.8798,       698,
   72.8999,       664,
   72.9201,       696,
   72.9403,       701,
   72.9604,       676,
   72.9806,       698,
   73.0008,       695,
    73.021,       659,
   73.0411,       666,
   73.0613,       710,
   73.0815,       711,
   73.1016,       697,
   73.1218,       720,
    73.142,       662,
   73.1621,       742,
   73.1823,       799,
   73.2025,       716,
   73.2226,       775,
   73.2428,       808,
    73.263,       793,
   73.2831,       820,
   73.3033,       817,
   73.3235,       853,
   73.3437,       821,
   73.3638,       921,
    73.384,       877,
   73.4042,       896,
   73.4243,       888,
   73.4445,       968,
   73.4647,       990,
   73.4848,      1021,
    73.505,      1066,
   73.5252,      1026,
   73.5453,      1161,
   73.5655,      1142,
   73.5857,      1157,
   73.6058,      1200,
    73.626,      1318,
   73.6462,      1395,
   73.6663,      1425,
   73.6865,      1488,
   73.7067,      1648,
   73.7269,      1837,
    73.747,      2005,
   73.7672,      2140,
   73.7874,      2358,
   73.8075,      2306,
   73.8277,      2043,
   73.8479,      2000,
    73.868,      1743,
   73.8882,      1644,
   73.9084,      1696,
   73.9285,      1651,
   73.9487,      1660,
   73.9689,      1770,
    73.989,      1749,
   74.0092,      1793,
   74.0294,      1636,
   74.0495,      1521,
   74.0697,      1440,
   74.0899,      1359,
   74.1101,      1159,
   74.1302,      1246,
   74.1504,      1162,
   74.1706,      1078,
   74.1907,      1078,
   74.2109,      1039,
   74.2311,       967,
   74.2512,       947,
   74.2714,       978,
   74.2916,       919,
   74.3117,       891,
   74.3319,       866,
   74.3521,       873,
   74.3722,       863,
   74.3924,       836,
   74.4126,       816,
   74.4328,       793,
   74.4529,       759,
   74.4731,       794,
   74.4933,       760,
   74.5134,       824,
   74.5336,       742,
   74.5538,       748,
   74.5739,       776,
   74.5941,       739,
   74.6143,       727,
   74.6344,       725,
   74.6546,       694,
   74.6748,       697,
   74.6949,       730,
   74.7151,       701,
   74.7353,       742,
   74.7554,       707,
   74.7756,       674,
   74.7958,       677,
    74.816,       674,
   74.8361,       691,
   74.8563,       678,
   74.8765,       661,
   74.8966,       707,
   74.9168,       702,
    74.937,       675,
   74.9571,       702,
   74.9773,       656,
   74.9975,       674,
   75.0176,       681,
   75.0378,       657,
    75.058,       648,
   75.0781,       685,
   75.0983,       666,
   75.1185,       634,
   75.1386,       678,
   75.1588,       656,
    75.179,       645,
   75.1992,       681,
   75.2193,       658,
   75.2395,       613,
   75.2597,       677,
   75.2798,       658,
      75.3,       690,
   75.3202,       647,
   75.3403,       638,
   75.3605,       654,
   75.3807,       690,
   75.4008,       674,
    75.421,       652,
   75.4412,       600,
   75.4613,       696,
   75.4815,       647,
   75.5017,       652,
   75.5219,       635,
    75.542,       653,
   75.5622,       648,
   75.5824,       683,
   75.6025,       620,
   75.6227,       666,
   75.6429,       674,
    75.663,       671,
   75.6832,       625,
   75.7034,       623,
   75.7235,       646,
   75.7437,       631,
   75.7639,       618,
    75.784,       654,
   75.8042,       685,
   75.8244,       649,
   75.8445,       669,
   75.8647,       668,
   75.8849,       642,
   75.9051,       635,
   75.9252,       640,
   75.9454,       621,
   75.9656,       667,
   75.9857,       662,
   76.0059,       672,
   76.0261,       628,
   76.0462,       631,
   76.0664,       624,
   76.0866,       603,
   76.1067,       679,
   76.1269,       644,
   76.1471,       661,
   76.1672,       676,
   76.1874,       643,
   76.2076,       618,
   76.2277,       633,
   76.2479,       657,
   76.2681,       713,
   76.2883,       632,
   76.3084,       679,
   76.3286,       661,
   76.3488,       641,
   76.3689,       616,
   76.3891,       641,
   76.4093,       668,
   76.4294,       634,
   76.4496,       674,
   76.4698,       599,
   76.4899,       642,
   76.5101,       647,
   76.5303,       658,
   76.5504,       634,
   76.5706,       648,
   76.5908,       645,
    76.611,       668,
   76.6311,       664,
   76.6513,       645,
   76.6715,       643,
   76.6916,       664,
   76.7118,       639,
    76.732,       677,
   76.7521,       612,
   76.7723,       679,
   76.7925,       644,
   76.8126,       601,
   76.8328,       644,
    76.853,       651,
   76.8731,       647,
   76.8933,       616,
   76.9135,       658,
   76.9336,       622,
   76.9538,       663,
    76.974,       631,
   76.9942,       625,
   77.0143,       657,
   77.0345,       620,
   77.0547,       607,
   77.0748,       672,
    77.095,       687,
   77.1152,       625,
   77.1353,       636,
   77.1555,       618,
   77.1757,       629,
   77.1958,       693,
    77.216,       639,
   77.2362,       693,
   77.2563,       653,
   77.2765,       610,
   77.2967,       671,
   77.3169,       614,
    77.337,       684,
   77.3572,       619,
   77.3774,       672,
   77.3975,       641,
   77.4177,       644,
   77.4379,       632,
    77.458,       660,
   77.4782,       577,
   77.4984,       625,
   77.5185,       605,
   77.5387,       647,
   77.5589,       629,
    77.579,       626,
   77.5992,       668,
   77.6194,       649,
   77.6395,       646,
   77.6597,       641,
   77.6799,       628,
   77.7001,       632,
   77.7202,       664,
   77.7404,       595,
   77.7606,       673,
   77.7807,       592,
   77.8009,       595,
   77.8211,       667,
   77.8412,       647,
   77.8614,       635,
   77.8816,       676,
   77.9017,       600,
   77.9219,       624,
   77.9421,       652,
   77.9622,       645,
   77.9824,       606,
   78.0026,       596,
   78.0227,       626,
   78.0429,       682,
   78.0631,       625,
   78.0833,       618,
   78.1034,       643,
   78.1236,       652,
   78.1438,       594,
   78.1639,       609,
   78.1841,       643,
   78.2043,       632,
   78.2244,       622,
   78.2446,       675,
   78.2648,       652,
   78.2849,       649,
   78.3051,       635,
   78.3253,       605,
   78.3454,       598,
   78.3656,       615,
   78.3858,       645,
    78.406,       611,
   78.4261,       611,
   78.4463,       669,
   78.4665,       665,
   78.4866,       635,
   78.5068,       664,
    78.527,       637,
   78.5471,       615,
   78.5673,       604,
   78.5875,       679,
   78.6076,       611,
   78.6278,       639,
    78.648,       634,
   78.6681,       672,
   78.6883,       645,
   78.7085,       641,
   78.7286,       676,
   78.7488,       621,
    78.769,       691,
   78.7892,       647,
   78.8093,       638,
   78.8295,       649,
   78.8497,       599,
   78.8698,       644,
     78.89,       636,
   78.9102,       621,
   78.9303,       633,
   78.9505,       633,
   78.9707,       669,
   78.9908,       654,
    79.011,       642,
   79.0312,       622,
   79.0513,       638,
   79.0715,       654,
   79.0917,       682,
   79.1118,       629,
    79.132,       630,
   79.1522,       607,
   79.1724,       671,
   79.1925,       625,
   79.2127,       677,
   79.2329,       643,
    79.253,       623,
   79.2732,       648,
   79.2934,       593,
   79.3135,       653,
   79.3337,       621,
   79.3539,       657,
    79.374,       674,
   79.3942,       573,
   79.4144,       618,
   79.4345,       633,
   79.4547,       606,
   79.4749,       649,
   79.4951,       664,
   79.5152,       614,
   79.5354,       677,
   79.5556,       609,
   79.5757,       653,
   79.5959,       601,
   79.6161,       632,
   79.6362,       646,
   79.6564,       650,
   79.6766,       627,
   79.6967,       658,
   79.7169,       690,
   79.7371,       633,
   79.7572,       611,
   79.7774,       624,
   79.7976,       603,
   79.8177,       630,
   79.8379,       659,
   79.8581,       647,
   79.8783,       614,
   79.8984,       638,
   79.9186,       667,
   79.9388,       656,
   79.9589,       647,
   79.9791,       621,
   79.9993,       638,
