;RAW4.00
[RawHeader]
Date=11/26/2025
EstimatedTotalTime=426.6
FurtherDQLReading=0
HardwareIndicator=65519
MeasuredTotalTime=4.29572
MeasurementFlag=1
NumberOfMeasuredRanges=1
NumberOfRanges=1
Time=20:00:13

[VarInfo]
Type=USER
Flags=0
Value=Lab Manager

[VarInfo]
Type=SAMPLEID
Flags=0
Value=Commander Sample ID

[VarInfo]
Type=COMMENT
Flags=0
Value=

[VarInfo]
Type=UTF
Flags=0
Value=

[VarInfo]
Type=CREATOR
Flags=0
Value=V5Converter

[VarInfo]
Type=CREATOR_VERSION
Flags=0
Value=4.4.16.0

[HardwareConfiguration]
AbsorptionFactor=9999
ActivateAbsorber=0
Alpha1=1.5406
Alpha2=1.54439
AlphaAverage=1.54184
AlphaRatio=0.5
Analyzer=0
Anode=Cu
AntiScatteringSlit=9999
BeamOpticsFlags=0
Beta=1.39222
BetaRelativeIntensity=0
DeactivateAbsorber=0
DetectorSlit=9999
DivergenceSlit=9999
GoniometerControl=0
GoniometerDiameter=282
GoniometerModel=256
GoniometerStage=7
Monochromator=0
NearSampleSlit=9999
PrimarySollerSlit=9999
SampleChanger=0
SecondSollerSlit=9999
SynchronousAxis=0
ThinFilmAttachment=9999
WaveUnit=A

[RangeHeader]
ActuallyUsedLambda=1.54184
AdditionalDetectorMask=257
DataRecordLength=4
DelayTime=0
DisplayPlaneNumber=0
EstimatedScanTime=427
ExtraParametersMask=0
GeneratorCurrent=10
GeneratorVoltage=30
Increment=0.0201685
Increment3=0
NumberOfCompletedData=1885
NumberOfCounts=1
NumberOfDetectors=0
NumberOfDrives=3
NumberOfEncoderDrives=0
NumberOfMeasuredData=1885
NumberOfVaryingParameters=0
RangeStartTime=0
RotationSpeed=0
ScanMode=1
ScanType=Locked Coupled
SimulatedMeasConditions=0
SlitChangerIn=0
SmootingWidth=0
Start=40.0015
Steps=1885
SynchronousRotation=0
Time=33

[VarInfo]
Type=PSD_DISCRIM
Flags=0
Value=0.11;0.5

[VarInfo]
Type=OPTICS_V5
Flags=0
Value=H4sIAAAAAAAEAO1d63KjOhJ+Fda/zqmtBIPtXKaITzm2J+OaOHbFTnKmtrZcBORYZzC4AOey//d99hl2X2x1QViIS8C3JBN+TCaodWm6+2vUUkfS/nieW9IjcD3o2GcV5bBakYBtOCa0H84qS396oBxV/mhqF44NnTnwgdt25gvHBrbf0X1dQq1t78uzB88qM99ffJHlp6enw6faoeM+yGq1qsh/9i9HxgzM9QNoe75uG6AStjJfb1WRbqEH7y1wpc/BWWXFR0joAM9w4cInL/Bj4UHLsSW+3oXrLBc9NBZ6t3Pgojcb3P8FDH+o+7OzitwBj9AAMt+CrxUfl1Lblu55QRehTORzoM8XqLDt2L4ObeBy/coBc6yHluEvdYtxoR6o1ePT02O5h8TkLue4tzhrTW2EZGjqqBswQr3oFvyXjl+9OdUtD2hyGln7c259hcAyrwHqHhq4EDFpA/KbJ8lNjfKD1ToCFipvdm00JDA1OUbR6Btwou9Ab2HpL824AjQ5tXK8m+bF4OrHhPzodEft64TGrBVWDOsoPhpP1bBWhrxWvISy1r0hIUP+4r8skMLHrm78xG8sGODQhXPdfSHkZBMMakgD9GxISBvSeHkPOIFIQeOidilHx44baRI9r5mSRmyEDSxUYBJZ3blu/xy4JnCvAfYzAL0wsdX3b8s5NVnMwIfj6+8T9KPV/l7IxHm5Jhp5z0OvBh9BE+kGCS98DAk920dCZMIVSikeHA9SJulgmhwp1bAq2ZMXfZT4B2LSAxc+QFu3ogSlwl6OWi7Ssb/0moPwnSLFGmsYPPedJdIj0qJQrgWE0MJ5JCOdEXICmjFtjmnJUA7J0tRxpRHQLUBtYA3AytxYcejGiMm4JZa46kmmLG0LrhEWBa3xcus++8A2MZDfDYZpCWdMkQKtj5nwHfcltGVFk+OFGseMJxH2qHoYWND7cnJosmJN5ku1uCnh1+H65qyTKx3Y545jAR1NEG5s6BPpdiDSG56bXcI59IlYwiKvWdVk7knrgKm+tPxb3VoCboigVyQ96CPXTshnFewlKri/oQta5l9LD8GnYEuZYx67mbHTJoqe6ZblPK0cjVCOarZnwPgJzFUVVqC1ESPOHKsWvx33pNH5Zl7erhEyxkg2xVq1lr7TdoHug6HrLIDrvzAWEyiR9/eIRfdMhLKr5fweuE21rslCEdaQRS08UPF//xMyUSUc9B0TNG8Quqbos4xMnTwz90Y+PzEHluy7tuWt5HgP/ND5vNXOHBXjLvaN2aNbYuh5A79Evm3IJvErCL6JJ23LP418rD3OPSHRTOHDEjnla/gw85sIdabECnU0BoKwUKWYS+vrz5fAfvBnTbXRwKJhj2nOjrJISkNktZevObqMVm/q5DL4SnFwGS02cm5pFninPwKqkpa1mOmKYIUieVuWOJh2nCVqyWzxf//ehzWm2Nxw9uJBQ7dIeQJnTA/KYaNePXrNFtfo7ca2MPfItOjcf/WMZelYS+paugfVBtErK9H60Ibz5bx5oBwenx4fndaUWv3kSK0pjePu32vVE4S4oAZGIvklvWZQ4W0Rs4b0UpC0Rk/7QJiajTD10yOsXjvdJsRYdyXGNhLfFkDGuto1yh6Bqz+IoV6M/ulxppzUt4kz1l2Js43EtwWcsa52jLNz4OupIMPET46w2qmqqttD2Kq7EmEbiW9jhK262jHCrvGaRirECHVXGHuvCFutth02NsJWrKMSVWsKbh08xTrZCZK+OsbSG7gQ2D5ZHRSgJJK3tspG1g4H057tH9XfH6CibEVXr/OjKbkXhfRCBYDfqOeDOWLs0nmABl3VvJn0rm5bl73OpP2tN9TkFYkJfAye/WbPftQtiMQzg4uVjCJaIvW07+CFjI1lEf6uyTEWsnm67F2lsnIJbSARW0kbWtlk6OEgY+yhA20/e3B1k8GZLoaD0auqCHeKD6S58wgk35HmwJjpNrYKCTmTxd/SeKxl8/ienF2WXefzdFk9bOTm6N5Lz546UqiqhAVciZbr3FOQY3BWIVUkVBrdJr+ZtC6H31rRcrGRhEeyyEjkXXKxo0bYURPZUVPYUbPYUQuzEywL8PxEyoQBQloib5PW7UUWe0HrokySmCrg8D78PeybkkWGzrvjVjIvuH4+FiIbUQEDqBXeyxN46LJSkY3uZbffvRqnSMV2TCAFbaXVSDlkQmfBvNq4EkHsASVZZdetcW+QpTTSOp+8YlOLgL9pYnk4ToQicvl10J4MrpMZJONJkeZyfMe6Ed+xvgA2skTfcYU8TFacvPmcsQFLZ8dr7r82tXQiP3O7dSw/voYXlO4q5vl5u6WEjcypLxqFfRNqVSHyCL4FKaFHctihVBMCjFp1f7FErbF+MBEXRsEvZLo55TW19tJ1sT+LmlpQuitTm7f2YWpolHD6sQ1TaySFsh/E0uKy2LulDZ0nkgHOmxQp25WV3aUEnW+xcHMnRJr5lluqhymm+EkWW+4491hde7Ul3ssWbV9+7YtfJA0UTQyNGXBfyVbbPA8ud74bklUw60j9YgWfilQ/I4dzraYmBmuZ2QhiKJW9qxqLdLI3h6IxR/YytzAXT1vD42MIIXVJnC4nR8cylyaJ7OZRhxZeJcCPHu2eWH2ZQFkmUJYJlGUCZZlA+fE2xcsEyvezJV4mUP6aCCsTKN8TxsoEyl8VZ2UC5XvCWZlA+ashrEygfE8IKxMoywTKMoGyTKAsEyjLBMoygbJMoCwTKMsEyjKBskygLBMoywTKMoGyTKAsEyjLBMoygbJMoHzr+KNMoCwTKD9tAiXLkUS/iumT7KzT+Cmg4tm7GScqd+cL/4UkG4arGcVOT+72h4PRhP4scnoyGTg0xcTzk2U+BzLzcGMl7XBjde+HGw8WbefceR5MR45lATfhiGNKyDjkmKsg/WbotmTQQ8ElNJZEifQE7N/XgX9k+LhXSSBnuYaE6hunwkb7FPSZfOxxRGTIPPKL8PePe2KymphYK0bAR+scevtxXAin6Q2diJrmRGpv50S+wmdgEkNlcw/RmVjQz3IliCz1U2CAaRv4kdXICV5EJGb6ELHy5h6E61FQZYr/YA2o98gntQ/sOmq5XMfxeudlE7OmVzSsTJpYMhZe0hcRy1SR/jGf/zPDjH/DR/7fA2QfErQ9hAVgol98R9I5hWWaMq5mhBds4KeJUp0oaQYcIb5mwIVtN52ZmPP5qH/5US30lx930PRnYm4HLtvZktP8/WxBxzgL44DNsuvjPeVdZqh+7nWGuODWWWeI97KTtI5vABumgB1a+LnBszXslNBZz+i3gpzt3wSirjOzGenzhQXuZgBYY/QC/KUgIkkjH65UJ0ChmfamMj+F+lCxGJtFbxiJ1dIisfpGkRjhMR6HvT9h3thLD5hkeHHgLInKwm1g17oJl16CldWVYB+fXrg3mE494KdZfesZevz3Iay2B1ceYybnbh1ywVU1LSlVPTypn6qNRkNN8LvHjcOTRv24dqQqvK8VhNAM7mETbitc+w7DEUCRgJl9i2FYh7v9roNCXwNnMmzhLkORh4SYKLFGsfsMwz42ifVFRj70nYaF9FrM/4zwzYaj4jcbRuW787sNw+F2cbvhyRss3uHlOks3wMyxzMQtgMsX+xm8pBxzcfnj6s/ujy654bCjSsOZ7olX4OYEsRyOEwezQMpa3mDWKOO8X3k4Wj2jProvYAvX6KYzLmrzl7v28CTPUlxNiU9Yi8wL0ecUu0XdWrmWfniNJk2pxn6HJHazGl4xZ9PpjyfkXwFHw4ba6R6gstmscZebgP09bgIKCIswkLYN2N/zNmAmj6JSs3YC+59rJ1Cp53Ii1c+wFVhGSkUjpbRAqXF4dHrSUJRqPWmBqqEcHldP68dqfQeB0sontAHGieA9hcKI4+SmzLSadMAw70kjnLfkkW8dVkPLMIDnOS4E3hoRE+Mi7j2jlLwRUvyl1/ekrIcPHRqtqcpiLudicNWekB9FHA7lZ+eh0Ri4qHQnkdHp3mdFwxkkShPAfO0EGXBRYgTUqKlErdE1Wb0CGJXZGHSdNqGDKCsJ1TJnP6vqMuJUZpxuDuAUxgVFpsREEgUYMFu+rxszPNBZ5WDPRwluc5pzmitr4SQ+y+l5TBQhKMMCjfMcZLfIWj48ALPjYkzSv8ZE3eHvWs9sIu2S3oNHTCEVRwtgwGnwt6KsUpyC4BLvvcgEK46DYs5u+K03mpAfRZxdFKHbnGBVi0yvQisOP5lEYfRDEPwf22IqXU7pckqXI7qcECvsd+8VLsZPznhGTjB6jZVIzZz8ZA+dc9yig6ZEJvFifFQxXo8YAd9H0PIkfi6GHAXNPKxILbzB7vVR6AbplI5NtLGOuVT/5i2e1Rn4EFu+VFtBkewhB6uqmiyUa3yqI/WAkWUTj/6JxSqYYK6D6Pv/u9RXv2COAAA=

[PSD]
ActualTwoTheta=9999
FirstUsedChannel=0
FixedPSD=0
PSDOpening=4.99171
PSDType=5

[Drive]
DriveFlags=1
DriveName=2Theta
DriveNumber=2
DriveOffset=0
OffsetIndex=0
OscillationAmplitude=0
OscillationSpeed=0
StartPosition=40.0015

[Drive]
DriveFlags=1
DriveName=Theta
DriveNumber=1
DriveOffset=0
OffsetIndex=0
OscillationAmplitude=0
OscillationSpeed=0
StartPosition=20.0007

[Drive]
DriveFlags=1
DriveName=Phi
DriveNumber=3
DriveOffset=0
OffsetIndex=0
OscillationAmplitude=0
OscillationSpeed=0
StartPosition=0

[Data]
     Angle,       PSD,
   40.0015,       618,
   40.0217,       639,
   40.0418,       619,
    40.062,       623,
   40.0822,       666,
   40.1023,       611,
   40.1225,       620,
   40.1427,       665,
   40.1628,       568,
    40.183,       625,
   40.2032,       634,
   40.2233,       639,
   40.2435,       656,
   40.2637,       616,
   40.2838,       609,
    40.304,       620,
   40.3242,       620,
   40.3444,       618,
   40.3645,       633,
   40.3847,       606,
   40.4049,       627,
    40.425,       599,
   40.4452,       623,
   40.4654,       604,
   40.4855,       591,
   40.5057,       636,
   40.5259,       626,
    40.546,       604,
   40.5662,       623,
   40.5864,       627,
   40.6065,       594,
   40.6267,       621,
   40.6469,       622,
   40.6671,       609,
   40.6872,       623,
   40.7074,       598,
   40.7276,       602,
   40.7477,       596,
   40.7679,       578,
   40.7881,       615,
   40.8082,       618,
   40.8284,       604,
   40.8486,       648,
   40.8687,       603,
   40.8889,       626,
   40.9091,       583,
   40.9292,       655,
   40.9494,       609,
   40.9696,       574,
   40.9897,       599,
   41.0099,       575,
   41.0301,       632,
   41.0503,       580,
   41.0704,       631,
   41.0906,       638,
   41.1108,       653,
   41.1309,       591,
   41.1511,       596,
   41.1713,       648,
   41.1914,       619,
   41.2116,       617,
   41.2318,       608,
   41.2519,       627,
   41.2721,       598,
   41.2923,       542,
   41.3124,       595,
   41.3326,       639,
   41.3528,       629,
   41.3729,       587,
   41.3931,       652,
   41.4133,       607,
   41.4335,       592,
   41.4536,       618,
   41.4738,       601,
    41.494,       614,
   41.5141,       637,
   41.5343,       602,
   41.5545,       627,
   41.5746,       631,
   41.5948,       642,
    41.615,       577,
   41.6351,       583,
   41.6553,       619,
   41.6755,       623,
   41.6956,       656,
   41.7158,       587,
    41.736,       606,
   41.7562,       659,
   41.7763,       629,
   41.7965,       651,
   41.8167,       629,
   41.8368,       615,
    41.857,       676,
   41.8772,       615,
   41.8973,       622,
   41.9175,       650,
   41.9377,       663,
   41.9578,       686,
    41.978,       725,
   41.9982,       706,
   42.0183,       744,
   42.0385,       697,
   42.0587,       732,
   42.0788,       754,
    42.099,       702,
   42.1192,       725,
   42.1394,       775,
   42.1595,       742,
   42.1797,       720,
   42.1999,       701,
     42.22,       732,
   42.2402,       740,
   42.2604,       747,
   42.2805,       721,
   42.3007,       731,
   42.3209,       727,
    42.341,       744,
   42.3612,       726,
   42.3814,       725,
   42.4015,       690,
   42.4217,       722,
   42.4419,       751,
    42.462,       741,
   42.4822,       719,
   42.5024,       792,
   42.5226,       741,
   42.5427,       702,
   42.5629,       746,
   42.5831,       768,
   42.6032,       731,
   42.6234,       792,
   42.6436,       785,
   42.6637,       721,
   42.6839,       710,
   42.7041,       736,
   42.7242,       746,
   42.7444,       747,
   42.7646,       779,
   42.7847,       742,
   42.8049,       754,
   42.8251,       801,
   42.8453,       771,
   42.8654,       757,
   42.8856,       797,
   42.9058,       795,
   42.9259,       806,
   42.9461,       796,
   42.9663,       806,
   42.9864,       809,
   43.0066,       803,
   43.0268,       902,
   43.0469,       900,
   43.0671,       997,
   43.0873,       980,
   43.1074,      1057,
   43.1276,      1054,
   43.1478,      1108,
   43.1679,      1116,
   43.1881,      1165,
   43.2083,      1195,
   43.2285,      1244,
   43.2486,      1302,
   43.2688,      1548,
    43.289,      1666,
   43.3091,      1818,
   43.3293,      1910,
   43.3495,      2077,
   43.3696,      2278,
   43.3898,      2634,
     43.41,      3431,
   43.4301,      5386,
   43.4503,     10475,
   43.4705,     23804,
   43.4906,     43554,
   43.5108,     50870,
    43.531,     36066,
   43.5511,     18793,
   43.5713,     13252,
   43.5915,     18685,
   43.6117,     26205,
   43.6318,     24446,
    43.652,     15061,
   43.6722,      7192,
   43.6923,      3922,
   43.7125,      2831,
   43.7327,      2172,
   43.7528,      2003,
    43.773,      1808,
   43.7932,      1582,
   43.8133,      1534,
   43.8335,      1425,
   43.8537,      1230,
   43.8738,      1153,
    43.894,      1023,
   43.9142,      1098,
   43.9344,      1002,
   43.9545,       961,
   43.9747,       936,
   43.9949,       869,
    44.015,       856,
   44.0352,       797,
   44.0554,       807,
   44.0755,       820,
   44.0957,       817,
   44.1159,       786,
    44.136,       822,
   44.1562,       807,
   44.1764,       812,
   44.1965,       768,
   44.2167,       753,
   44.2369,       777,
    44.257,       785,
   44.2772,       753,
   44.2974,       781,
   44.3176,       760,
   44.3377,       756,
   44.3579,       735,
   44.3781,       770,
   44.3982,       722,
   44.4184,       748,
   44.4386,       749,
   44.4587,       766,
   44.4789,       732,
   44.4991,       736,
   44.5192,       739,
   44.5394,       703,
   44.5596,       712,
   44.5797,       769,
   44.5999,       752,
   44.6201,       676,
   44.6402,       702,
   44.6604,       707,
   44.6806,       708,
   44.7008,       670,
   44.7209,       695,
   44.7411,       703,
   44.7613,       727,
   44.7814,       688,
   44.8016,       685,
   44.8218,       697,
   44.8419,       677,
   44.8621,       713,
   44.8823,       730,
   44.9024,       691,
   44.9226,       691,
   44.9428,       701,
   44.9629,       649,
   44.9831,       638,
   45.0033,       703,
   45.0235,       713,
   45.0436,       712,
   45.0638,       689,
    45.084,       734,
   45.1041,       668,
   45.1243,       713,
   45.1445,       715,
   45.1646,       690,
   45.1848,       718,
    45.205,       693,
   45.2251,       715,
   45.2453,       731,
   45.2655,       669,
   45.2856,       679,
   45.3058,       692,
    45.326,       655,
   45.3461,       685,
   45.3663,       639,
   45.3865,       705,
   45.4067,       665,
   45.4268,       678,
    45.447,       682,
   45.4672,       713,
   45.4873,       717,
   45.5075,       718,
   45.5277,       727,
   45.5478,       696,
    45.568,       747,
   45.5882,       734,
   45.6083,       680,
   45.6285,       721,
   45.6487,       717,
   45.6688,       675,
    45.689,       683,
   45.7092,       673,
   45.7294,       688,
   45.7495,       676,
   45.7697,       668,
   45.7899,       646,
     45.81,       708,
   45.8302,       655,
   45.8504,       698,
   45.8705,       679,
   45.8907,       675,
   45.9109,       668,
    45.931,       699,
   45.9512,       707,
   45.9714,       705,
   45.9915,       668,
   46.0117,       641,
   46.0319,       649,
    46.052,       661,
   46.0722,       675,
   46.0924,       652,
   46.1126,       690,
   46.1327,       672,
   46.1529,       704,
   46.1731,       676,
   46.1932,       664,
   46.2134,       669,
   46.2336,       663,
   46.2537,       695,
   46.2739,       690,
   46.2941,       670,
   46.3142,       640,
   46.3344,       647,
   46.3546,       671,
   46.3747,       636,
   46.3949,       730,
   46.4151,       734,
   46.4352,       613,
   46.4554,       662,
   46.4756,       634,
   46.4958,       659,
   46.5159,       710,
   46.5361,       676,
   46.5563,       659,
   46.5764,       636,
   46.5966,       713,
   46.6168,       630,
   46.6369,       683,
   46.6571,       616,
   46.6773,       702,
   46.6974,       638,
   46.7176,       619,
   46.7378,       587,
   46.7579,       714,
   46.7781,       715,
   46.7983,       676,
   46.8185,       656,
   46.8386,       664,
   46.8588,       701,
    46.879,       653,
   46.8991,       618,
   46.9193,       682,
   46.9395,       707,
   46.9596,       705,
   46.9798,       682,
        47,       666,
   47.0201,       647,
   47.0403,       629,
   47.0605,       654,
   47.0806,       638,
   47.1008,       631,
    47.121,       650,
   47.1411,       661,
   47.1613,       590,
   47.1815,       685,
   47.2017,       662,
   47.2218,       655,
    47.242,       673,
   47.2622,       673,
   47.2823,       675,
   47.3025,       713,
   47.3227,       647,
   47.3428,       662,
    47.363,       631,
   47.3832,       697,
   47.4033,       639,
   47.4235,       666,
   47.4437,       622,
   47.4638,       638,
    47.484,       653,
   47.5042,       679,
   47.5243,       666,
   47.5445,       663,
   47.5647,       599,
   47.5849,       658,
    47.605,       706,
   47.6252,       654,
   47.6454,       698,
   47.6655,       692,
   47.6857,       669,
   47.7059,       632,
    47.726,       661,
   47.7462,       672,
   47.7664,       631,
   47.7865,       661,
   47.8067,       614,
   47.8269,       703,
    47.847,       624,
   47.8672,       670,
   47.8874,       650,
   47.9076,       635,
   47.9277,       628,
   47.9479,       693,
   47.9681,       708,
   47.9882,       635,
   48.0084,       638,
   48.0286,       653,
   48.0487,       659,
   48.0689,       656,
   48.0891,       664,
   48.1092,       649,
   48.1294,       635,
   48.1496,       695,
   48.1697,       690,
   48.1899,       636,
   48.2101,       673,
   48.2302,       653,
   48.2504,       647,
   48.2706,       627,
   48.2908,       659,
   48.3109,       646,
   48.3311,       649,
   48.3513,       642,
   48.3714,       627,
   48.3916,       651,
   48.4118,       656,
   48.4319,       661,
   48.4521,       672,
   48.4723,       688,
   48.4924,       645,
   48.5126,       662,
   48.5328,       626,
   48.5529,       627,
   48.5731,       650,
   48.5933,       615,
   48.6134,       638,
   48.6336,       670,
   48.6538,       610,
    48.674,       684,
   48.6941,       609,
   48.7143,       667,
   48.7345,       683,
   48.7546,       661,
   48.7748,       607,
    48.795,       652,
   48.8151,       675,
   48.8353,       682,
   48.8555,       642,
   48.8756,       648,
   48.8958,       617,
    48.916,       646,
   48.9361,       664,
   48.9563,       687,
   48.9765,       739,
   48.9967,       633,
   49.0168,       656,
    49.037,       617,
   49.0572,       717,
   49.0773,       687,
   49.0975,       659,
   49.1177,       687,
   49.1378,       678,
    49.158,       632,
   49.1782,       643,
   49.1983,       685,
   49.2185,       632,
   49.2387,       647,
   49.2588,       655,
    49.279,       663,
   49.2992,       654,
   49.3193,       640,
   49.3395,       645,
   49.3597,       680,
   49.3799,       737,
      49.4,       685,
   49.4202,       681,
   49.4404,       712,
   49.4605,       660,
   49.4807,       664,
   49.5009,       688,
    49.521,       706,
   49.5412,       695,
   49.5614,       685,
   49.5815,       652,
   49.6017,       670,
   49.6219,       656,
    49.642,       650,
   49.6622,       678,
   49.6824,       668,
   49.7025,       667,
   49.7227,       680,
   49.7429,       703,
   49.7631,       659,
   49.7832,       675,
   49.8034,       673,
   49.8236,       670,
   49.8437,       669,
   49.8639,       679,
   49.8841,       666,
   49.9042,       662,
   49.9244,       701,
   49.9446,       684,
   49.9647,       691,
   49.9849,       703,
   50.0051,       704,
   50.0252,       674,
   50.0454,       679,
   50.0656,       681,
   50.0858,       687,
   50.1059,       727,
   50.1261,       722,
   50.1463,       715,
   50.1664,       719,
   50.1866,       747,
   50.2068,       759,
   50.2269,       780,
   50.2471,       811,
   50.2673,       827,
   50.2874,       821,
   50.3076,       827,
   50.3278,       899,
   50.3479,       875,
   50.3681,       906,
   50.3883,      1015,
   50.4084,      1065,
   50.4286,      1048,
   50.4488,      1192,
    50.469,      1184,
   50.4891,      1357,
   50.5093,      1507,
   50.5295,      1889,
   50.5496,      2606,
   50.5698,      3917,
     50.59,      6303,
   50.6101,      9746,
   50.6303,     12287,
   50.6505,     10943,
   50.6706,      7915,
   50.6908,      5262,
    50.711,      4690,
   50.7311,      5037,
   50.7513,      6269,
   50.7715,      6411,
   50.7917,      5383,
   50.8118,      3855,
    50.832,      2521,
   50.8522,      1732,
   50.8723,      1370,
   50.8925,      1205,
   50.9127,      1141,
   50.9328,       999,
    50.953,      1007,
   50.9732,       962,
   50.9933,       868,
   51.0135,       795,
   51.0337,       839,
   51.0538,       824,
    51.074,       771,
   51.0942,       796,
   51.1143,       759,
   51.1345,       761,
   51.1547,       716,
   51.1749,       696,
    51.195,       741,
   51.2152,       715,
   51.2354,       716,
   51.2555,       635,
   51.2757,       677,
   51.2959,       680,
    51.316,       690,
   51.3362,       702,
   51.3564,       633,
   51.3765,       688,
   51.3967,       683,
   51.4169,       671,
    51.437,       662,
   51.4572,       701,
   51.4774,       649,
   51.4975,       649,
   51.5177,       677,
   51.5379,       657,
   51.5581,       700,
   51.5782,       613,
   51.5984,       660,
   51.6186,       663,
   51.6387,       647,
   51.6589,       650,
   51.6791,       658,
   51.6992,       713,
   51.7194,       599,
   51.7396,       604,
   51.7597,       683,
   51.7799,       642,
   51.8001,       647,
   51.8202,       684,
   51.8404,       624,
   51.8606,       651,
   51.8808,       714,
   51.9009,       651,
   51.9211,       627,
   51.9413,       634,
   51.9614,       649,
   51.9816,       657,
   52.0018,       664,
   52.0219,       643,
   52.0421,       621,
   52.0623,       678,
   52.0824,       619,
   52.1026,       613,
   52.1228,       642,
   52.1429,       646,
   52.1631,       664,
   52.1833,       624,
   52.2034,       634,
   52.2236,       603,
   52.2438,       676,
    52.264,       653,
   52.2841,       640,
   52.3043,       625,
   52.3245,       638,
   52.3446,       634,
   52.3648,       630,
    52.385,       627,
   52.4051,       637,
   52.4253,       636,
   52.4455,       645,
   52.4656,       636,
   52.4858,       685,
    52.506,       635,
   52.5261,       627,
   52.5463,       673,
   52.5665,       669,
   52.5866,       609,
   52.6068,       655,
    52.627,       601,
   52.6472,       644,
   52.6673,       630,
   52.6875,       642,
   52.7077,       621,
   52.7278,       587,
    52.748,       663,
   52.7682,       640,
   52.7883,       690,
   52.8085,       611,
   52.8287,       603,
   52.8488,       663,
    52.869,       618,
   52.8892,       590,
   52.9093,       598,
   52.9295,       598,
   52.9497,       610,
   52.9699,       616,
     52.99,       598,
   53.0102,       609,
   53.0304,       606,
   53.0505,       631,
   53.0707,       638,
   53.0909,       627,
    53.111,       656,
   53.1312,       626,
   53.1514,       639,
   53.1715,       618,
   53.1917,       613,
   53.2119,       650,
    53.232,       615,
   53.2522,       616,
   53.2724,       596,
   53.2925,       647,
   53.3127,       657,
   53.3329,       634,
   53.3531,       619,
   53.3732,       607,
   53.3934,       621,
   53.4136,       626,
   53.4337,       614,
   53.4539,       647,
   53.4741,       588,
   53.4942,       592,
   53.5144,       607,
   53.5346,       624,
   53.5547,       619,
   53.5749,       644,
   53.5951,       619,
   53.6152,       616,
   53.6354,       666,
   53.6556,       639,
   53.6757,       625,
   53.6959,       642,
   53.7161,       615,
   53.7363,       579,
   53.7564,       628,
   53.7766,       602,
   53.7968,       635,
   53.8169,       630,
   53.8371,       656,
   53.8573,       609,
   53.8774,       628,
   53.8976,       619,
   53.9178,       605,
   53.9379,       612,
   53.9581,       662,
   53.9783,       600,
   53.9984,       656,
   54.0186,       666,
   54.0388,       611,
    54.059,       675,
   54.0791,       604,
   54.0993,       600,
   54.1195,       628,
   54.1396,       569,
   54.1598,       639,
     54.18,       602,
   54.2001,       620,
   54.2203,       649,
   54.2405,       651,
   54.2606,       587,
   54.2808,       559,
    54.301,       583,
   54.3211,       619,
   54.3413,       605,
   54.3615,       629,
   54.3816,       655,
   54.4018,       624,
    54.422,       638,
   54.4422,       617,
   54.4623,       608,
   54.4825,       608,
   54.5027,       633,
   54.5228,       625,
    54.543,       634,
   54.5632,       624,
   54.5833,       656,
   54.6035,       640,
   54.6237,       647,
   54.6438,       614,
    54.664,       641,
   54.6842,       658,
   54.7043,       643,
   54.7245,       606,
   54.7447,       615,
   54.7648,       584,
    54.785,       608,
   54.8052,       647,
   54.8254,       620,
   54.8455,       620,
   54.8657,       602,
   54.8859,       623,
    54.906,       629,
   54.9262,       582,
   54.9464,       595,
   54.9665,       632,
   54.9867,       624,
   55.0069,       649,
    55.027,       622,
   55.0472,       618,
   55.0674,       594,
   55.0875,       641,
   55.1077,       642,
   55.1279,       633,
   55.1481,       643,
   55.1682,       603,
   55.1884,       624,
   55.2086,       594,
   55.2287,       592,
   55.2489,       657,
   55.2691,       614,
   55.2892,       628,
   55.3094,       578,
   55.3296,       669,
   55.3497,       611,
   55.3699,       641,
   55.3901,       643,
   55.4102,       643,
   55.4304,       611,
   55.4506,       599,
   55.4707,       625,
   55.4909,       660,
   55.5111,       582,
   55.5313,       648,
   55.5514,       592,
   55.5716,       670,
   55.5918,       655,
   55.6119,       661,
   55.6321,       603,
   55.6523,       616,
   55.6724,       621,
   55.6926,       590,
   55.7128,       604,
   55.7329,       632,
   55.7531,       621,
   55.7733,       585,
   55.7934,       614,
   55.8136,       583,
   55.8338,       619,
    55.854,       613,
   55.8741,       620,
   55.8943,       629,
   55.9145,       669,
   55.9346,       642,
   55.9548,       597,
    55.975,       585,
   55.9951,       624,
   56.0153,       617,
   56.0355,       593,
   56.0556,       570,
   56.0758,       562,
    56.096,       627,
   56.1161,       647,
   56.1363,       604,
   56.1565,       607,
   56.1766,       629,
   56.1968,       633,
    56.217,       640,
   56.2372,       558,
   56.2573,       622,
   56.2775,       618,
   56.2977,       630,
   56.3178,       645,
    56.338,       626,
   56.3582,       605,
   56.3783,       625,
   56.3985,       593,
   56.4187,       569,
   56.4388,       591,
    56.459,       576,
   56.4792,       583,
   56.4993,       604,
   56.5195,       628,
   56.5397,       632,
   56.5598,       633,
     56.58,       585,
   56.6002,       602,
   56.6204,       627,
   56.6405,       575,
   56.6607,       595,
   56.6809,       594,
    56.701,       634,
   56.7212,       616,
   56.7414,       595,
   56.7615,       636,
   56.7817,       606,
   56.8019,       611,
    56.822,       598,
   56.8422,       608,
   56.8624,       573,
   56.8825,       612,
   56.9027,       593,
   56.9229,       592,
   56.9431,       569,
   56.9632,       565,
   56.9834,       619,
   57.0036,       590,
   57.0237,       590,
   57.0439,       566,
   57.0641,       594,
   57.0842,       629,
   57.1044,       611,
   57.1246,       583,
   57.1447,       630,
   57.1649,       616,
   57.1851,       603,
   57.2052,       603,
   57.2254,       578,
   57.2456,       643,
   57.2657,       571,
   57.2859,       563,
   57.3061,       603,
   57.3263,       609,
   57.3464,       618,
   57.3666,       598,
   57.3868,       647,
   57.4069,       587,
   57.4271,       637,
   57.4473,       614,
   57.4674,       580,
   57.4876,       560,
   57.5078,       593,
   57.5279,       580,
   57.5481,       582,
   57.5683,       612,
   57.5884,       601,
   57.6086,       600,
   57.6288,       625,
   57.6489,       620,
   57.6691,       569,
   57.6893,       608,
   57.7095,       605,
   57.7296,       589,
   57.7498,       583,
     57.77,       582,
   57.7901,       592,
   57.8103,       651,
   57.8305,       576,
   57.8506,       611,
   57.8708,       618,
    57.891,       571,
   57.9111,       574,
   57.9313,       555,
   57.9515,       621,
   57.9716,       593,
   57.9918,       566,
    58.012,       587,
   58.0322,       592,
   58.0523,       630,
   58.0725,       592,
   58.0927,       610,
   58.1128,       630,
    58.133,       583,
   58.1532,       598,
   58.1733,       626,
   58.1935,       598,
   58.2137,       602,
   58.2338,       592,
    58.254,       612,
   58.2742,       549,
   58.2943,       611,
   58.3145,       581,
   58.3347,       566,
   58.3548,       618,
    58.375,       576,
   58.3952,       566,
   58.4154,       574,
   58.4355,       589,
   58.4557,       594,
   58.4759,       620,
    58.496,       606,
   58.5162,       610,
   58.5364,       610,
   58.5565,       638,
   58.5767,       589,
   58.5969,       632,
    58.617,       639,
   58.6372,       651,
   58.6574,       593,
   58.6775,       606,
   58.6977,       578,
   58.7179,       650,
    58.738,       621,
   58.7582,       611,
   58.7784,       571,
   58.7986,       533,
   58.8187,       586,
   58.8389,       626,
   58.8591,       603,
   58.8792,       629,
   58.8994,       593,
   58.9196,       571,
   58.9397,       615,
   58.9599,       639,
   58.9801,       595,
   59.0002,       616,
   59.0204,       609,
   59.0406,       572,
   59.0607,       598,
   59.0809,       619,
   59.1011,       674,
   59.1213,       595,
   59.1414,       592,
   59.1616,       576,
   59.1818,       620,
   59.2019,       640,
   59.2221,       596,
   59.2423,       616,
   59.2624,       637,
   59.2826,       579,
   59.3028,       656,
   59.3229,       608,
   59.3431,       573,
   59.3633,       602,
   59.3834,       624,
   59.4036,       606,
   59.4238,       627,
   59.4439,       573,
   59.4641,       583,
   59.4843,       648,
   59.5045,       575,
   59.5246,       618,
   59.5448,       625,
    59.565,       586,
   59.5851,       572,
   59.6053,       593,
   59.6255,       621,
   59.6456,       581,
   59.6658,       569,
    59.686,       599,
   59.7061,       623,
   59.7263,       587,
   59.7465,       567,
   59.7666,       578,
   59.7868,       557,
    59.807,       569,
   59.8271,       598,
   59.8473,       575,
   59.8675,       612,
   59.8877,       600,
   59.9078,       608,
    59.928,       551,
   59.9482,       605,
   59.9683,       600,
   59.9885,       589,
   60.0087,       585,
   60.0288,       619,
    60.049,       605,
   60.0692,       578,
   60.0893,       567,
   60.1095,       590,
   60.1297,       625,
   60.1498,       602,
     60.17,       591,
   60.1902,       579,
   60.2104,       643,
   60.2305,       593,
   60.2507,       657,
   60.2709,       587,
    60.291,       589,
   60.3112,       631,
   60.3314,       597,
   60.3515,       601,
   60.3717,       580,
   60.3919,       597,
    60.412,       579,
   60.4322,       578,
   60.4524,       616,
   60.4725,       582,
   60.4927,       574,
   60.5129,       606,
    60.533,       647,
   60.5532,       608,
   60.5734,       633,
   60.5936,       573,
   60.6137,       636,
   60.6339,       584,
   60.6541,       603,
   60.6742,       588,
   60.6944,       560,
   60.7146,       641,
   60.7347,       595,
   60.7549,       598,
   60.7751,       617,
   60.7952,       617,
   60.8154,       590,
   60.8356,       595,
   60.8557,       608,
   60.8759,       605,
   60.8961,       590,
   60.9163,       577,
   60.9364,       568,
   60.9566,       604,
   60.9768,       597,
   60.9969,       604,
   61.0171,       583,
   61.0373,       616,
   61.0574,       571,
   61.0776,       594,
   61.0978,       613,
   61.1179,       598,
   61.1381,       557,
   61.1583,       604,
   61.1784,       551,
   61.1986,       589,
   61.2188,       567,
   61.2389,       590,
   61.2591,       582,
   61.2793,       557,
   61.2995,       584,
   61.3196,       618,
   61.3398,       559,
     61.36,       592,
   61.3801,       543,
   61.4003,       575,
   61.4205,       593,
   61.4406,       606,
   61.4608,       584,
    61.481,       601,
   61.5011,       587,
   61.5213,       614,
   61.5415,       588,
   61.5616,       610,
   61.5818,       586,
    61.602,       631,
   61.6221,       619,
   61.6423,       604,
   61.6625,       649,
   61.6827,       545,
   61.7028,       622,
    61.723,       570,
   61.7432,       601,
   61.7633,       626,
   61.7835,       596,
   61.8037,       576,
   61.8238,       638,
    61.844,       555,
   61.8642,       632,
   61.8843,       593,
   61.9045,       584,
   61.9247,       612,
   61.9448,       592,
    61.965,       628,
   61.9852,       583,
   62.0054,       571,
   62.0255,       584,
   62.0457,       606,
   62.0659,       606,
    62.086,       592,
   62.1062,       577,
   62.1264,       609,
   62.1465,       595,
   62.1667,       629,
   62.1869,       578,
    62.207,       613,
   62.2272,       610,
   62.2474,       561,
   62.2675,       558,
   62.2877,       613,
   62.3079,       577,
    62.328,       611,
   62.3482,       581,
   62.3684,       580,
   62.3886,       557,
   62.4087,       591,
   62.4289,       612,
   62.4491,       588,
   62.4692,       642,
   62.4894,       587,
   62.5096,       612,
   62.5297,       601,
   62.5499,       557,
   62.5701,       576,
   62.5902,       569,
   62.6104,       571,
   62.6306,       596,
   62.6507,       583,
   62.6709,       572,
   62.6911,       614,
   62.7112,       588,
   62.7314,       606,
   62.7516,       611,
   62.7718,       606,
   62.7919,       591,
   62.8121,       590,
   62.8323,       605,
   62.8524,       582,
   62.8726,       604,
   62.8928,       592,
   62.9129,       622,
   62.9331,       568,
   62.9533,       610,
   62.9734,       577,
   62.9936,       580,
   63.0138,       552,
   63.0339,       591,
   63.0541,       571,
   63.0743,       546,
   63.0945,       589,
   63.1146,       586,
   63.1348,       545,
    63.155,       582,
   63.1751,       600,
   63.1953,       587,
   63.2155,       618,
   63.2356,       601,
   63.2558,       583,
    63.276,       590,
   63.2961,       612,
   63.3163,       577,
   63.3365,       624,
   63.3566,       592,
   63.3768,       590,
    63.397,       590,
   63.4171,       584,
   63.4373,       593,
   63.4575,       571,
   63.4777,       613,
   63.4978,       580,
    63.518,       621,
   63.5382,       591,
   63.5583,       575,
   63.5785,       592,
   63.5987,       588,
   63.6188,       590,
    63.639,       569,
   63.6592,       594,
   63.6793,       573,
   63.6995,       573,
   63.7197,       567,
   63.7398,       584,
     63.76,       587,
   63.7802,       568,
   63.8003,       566,
   63.8205,       646,
   63.8407,       587,
   63.8609,       579,
    63.881,       598,
   63.9012,       612,
   63.9214,       596,
   63.9415,       612,
   63.9617,       590,
   63.9819,       602,
    64.002,       595,
   64.0222,       596,
   64.0424,       603,
   64.0625,       570,
   64.0827,       599,
   64.1029,       610,
    64.123,       589,
   64.1432,       560,
   64.1634,       647,
   64.1836,       587,
   64.2037,       606,
   64.2239,       598,
   64.2441,       593,
   64.2642,       612,
   64.2844,       602,
   64.3046,       588,
   64.3247,       580,
   64.3449,       616,
   64.3651,       617,
   64.3852,       601,
   64.4054,       571,
   64.4256,       591,
   64.4457,       609,
   64.4659,       541,
   64.4861,       595,
   64.5062,       587,
   64.5264,       601,
   64.5466,       613,
   64.5668,       562,
   64.5869,       612,
   64.6071,       572,
   64.6273,       575,
   64.6474,       610,
   64.6676,       549,
   64.6878,       541,
   64.7079,       578,
   64.7281,       583,
   64.7483,       578,
   64.7684,       581,
   64.7886,       567,
   64.8088,       578,
   64.8289,       535,
   64.8491,       633,
   64.8693,       632,
   64.8894,       606,
   64.9096,       593,
   64.9298,       554,
     64.95,       575,
   64.9701,       571,
   64.9903,       580,
   65.0105,       552,
   65.0306,       620,
   65.0508,       594,
    65.071,       582,
   65.0911,       592,
   65.1113,       592,
   65.1315,       551,
   65.1516,       572,
   65.1718,       613,
    65.192,       611,
   65.2121,       530,
   65.2323,       617,
   65.2525,       588,
   65.2727,       632,
   65.2928,       564,
    65.313,       607,
   65.3332,       546,
   65.3533,       594,
   65.3735,       613,
   65.3937,       583,
   65.4138,       602,
    65.434,       583,
   65.4542,       621,
   65.4743,       581,
   65.4945,       557,
   65.5147,       609,
   65.5348,       611,
    65.555,       614,
   65.5752,       602,
   65.5953,       621,
   65.6155,       571,
   65.6357,       585,
   65.6559,       569,
    65.676,       520,
   65.6962,       587,
   65.7164,       577,
   65.7365,       589,
   65.7567,       593,
   65.7769,       597,
    65.797,       545,
   65.8172,       612,
   65.8374,       603,
   65.8575,       601,
   65.8777,       572,
   65.8979,       604,
    65.918,       592,
   65.9382,       582,
   65.9584,       566,
   65.9786,       619,
   65.9987,       607,
   66.0189,       623,
   66.0391,       569,
   66.0592,       618,
   66.0794,       557,
   66.0996,       567,
   66.1197,       604,
   66.1399,       638,
   66.1601,       619,
   66.1802,       597,
   66.2004,       604,
   66.2206,       578,
   66.2407,       625,
   66.2609,       600,
   66.2811,       621,
   66.3012,       579,
   66.3214,       585,
   66.3416,       580,
   66.3618,       587,
   66.3819,       577,
   66.4021,       585,
   66.4223,       599,
   66.4424,       580,
   66.4626,       590,
   66.4828,       588,
   66.5029,       582,
   66.5231,       569,
   66.5433,       596,
   66.5634,       573,
   66.5836,       577,
   66.6038,       610,
   66.6239,       607,
   66.6441,       605,
   66.6643,       611,
   66.6844,       578,
   66.7046,       584,
   66.7248,       571,
    66.745,       568,
   66.7651,       584,
   66.7853,       570,
   66.8055,       550,
   66.8256,       612,
   66.8458,       587,
    66.866,       669,
   66.8861,       602,
   66.9063,       578,
   66.9265,       604,
   66.9466,       623,
   66.9668,       582,
    66.987,       619,
   67.0071,       606,
   67.0273,       565,
   67.0475,       558,
   67.0677,       575,
   67.0878,       566,
    67.108,       538,
   67.1282,       540,
   67.1483,       571,
   67.1685,       568,
   67.1887,       583,
   67.2088,       576,
    67.229,       611,
   67.2492,       608,
   67.2693,       585,
   67.2895,       582,
   67.3097,       548,
   67.3298,       590,
     67.35,       610,
   67.3702,       578,
   67.3903,       626,
   67.4105,       591,
   67.4307,       581,
   67.4509,       602,
    67.471,       611,
   67.4912,       643,
   67.5114,       585,
   67.5315,       592,
   67.5517,       569,
   67.5719,       596,
    67.592,       579,
   67.6122,       584,
   67.6324,       601,
   67.6525,       585,
   67.6727,       600,
   67.6929,       630,
    67.713,       581,
   67.7332,       576,
   67.7534,       592,
   67.7735,       632,
   67.7937,       579,
   67.8139,       600,
   67.8341,       616,
   67.8542,       595,
   67.8744,       602,
   67.8946,       586,
   67.9147,       617,
   67.9349,       577,
   67.9551,       608,
   67.9752,       609,
   67.9954,       543,
   68.0156,       573,
   68.0357,       546,
   68.0559,       597,
   68.0761,       554,
   68.0962,       566,
   68.1164,       581,
   68.1366,       615,
   68.1568,       590,
   68.1769,       566,
   68.1971,       554,
   68.2173,       625,
   68.2374,       582,
   68.2576,       580,
   68.2778,       571,
   68.2979,       605,
   68.3181,       549,
   68.3383,       598,
   68.3584,       551,
   68.3786,       588,
   68.3988,       563,
   68.4189,       610,
   68.4391,       602,
   68.4593,       597,
   68.4794,       606,
   68.4996,       558,
   68.5198,       578,
     68.54,       542,
   68.5601,       630,
   68.5803,       583,
   68.6005,       624,
   68.6206,       645,
   68.6408,       596,
    68.661,       582,
   68.6811,       529,
   68.7013,       566,
   68.7215,       585,
   68.7416,       601,
   68.7618,       583,
    68.782,       576,
   68.8021,       615,
   68.8223,       586,
   68.8425,       598,
   68.8626,       628,
   68.8828,       626,
    68.903,       593,
   68.9232,       600,
   68.9433,       567,
   68.9635,       616,
   68.9837,       627,
   69.0038,       591,
    69.024,       619,
   69.0442,       537,
   69.0643,       613,
   69.0845,       598,
   69.1047,       581,
   69.1248,       592,
    69.145,       615,
   69.1652,       607,
   69.1853,       613,
   69.2055,       622,
   69.2257,       594,
   69.2459,       569,
    69.266,       609,
   69.2862,       526,
   69.3064,       595,
   69.3265,       593,
   69.3467,       517,
   69.3669,       588,
    69.387,       600,
   69.4072,       581,
   69.4274,       605,
   69.4475,       592,
   69.4677,       551,
   69.4879,       586,
    69.508,       592,
   69.5282,       592,
   69.5484,       582,
   69.5685,       612,
   69.5887,       564,
   69.6089,       569,
   69.6291,       584,
   69.6492,       592,
   69.6694,       590,
   69.6896,       597,
   69.7097,       562,
   69.7299,       583,
   69.7501,       607,
   69.7702,       583,
   69.7904,       579,
   69.8106,       584,
   69.8307,       601,
   69.8509,       598,
   69.8711,       610,
   69.8912,       545,
   69.9114,       530,
   69.9316,       549,
   69.9517,       559,
   69.9719,       565,
   69.9921,       610,
   70.0123,       558,
   70.0324,       599,
   70.0526,       547,
   70.0728,       601,
   70.0929,       607,
   70.1131,       570,
   70.1333,       618,
   70.1534,       626,
   70.1736,       618,
   70.1938,       575,
   70.2139,       564,
   70.2341,       560,
   70.2543,       564,
   70.2744,       596,
   70.2946,       595,
   70.3148,       586,
    70.335,       611,
   70.3551,       625,
   70.3753,       576,
   70.3955,       575,
   70.4156,       602,
   70.4358,       573,
    70.456,       622,
   70.4761,       597,
   70.4963,       607,
   70.5165,       561,
   70.5366,       609,
   70.5568,       615,
    70.577,       631,
   70.5971,       554,
   70.6173,       591,
   70.6375,       593,
   70.6576,       630,
   70.6778,       627,
    70.698,       591,
   70.7182,       612,
   70.7383,       601,
   70.7585,       602,
   70.7787,       562,
   70.7988,       569,
    70.819,       539,
   70.8392,       569,
   70.8593,       615,
   70.8795,       593,
   70.8997,       562,
   70.9198,       593,
     70.94,       574,
   70.9602,       566,
   70.9803,       593,
   71.0005,       545,
   71.0207,       613,
   71.0409,       591,
    71.061,       605,
   71.0812,       572,
   71.1014,       597,
   71.1215,       545,
   71.1417,       614,
   71.1619,       604,
    71.182,       593,
   71.2022,       606,
   71.2224,       600,
   71.2425,       587,
   71.2627,       589,
   71.2829,       557,
    71.303,       570,
   71.3232,       583,
   71.3434,       611,
   71.3635,       614,
   71.3837,       643,
   71.4039,       601,
   71.4241,       626,
   71.4442,       614,
   71.4644,       573,
   71.4846,       583,
   71.5047,       608,
   71.5249,       608,
   71.5451,       605,
   71.5652,       577,
   71.5854,       622,
   71.6056,       585,
   71.6257,       579,
   71.6459,       585,
   71.6661,       611,
   71.6862,       595,
   71.7064,       585,
   71.7266,       605,
   71.7467,       630,
   71.7669,       570,
   71.7871,       618,
   71.8073,       625,
   71.8274,       600,
   71.8476,       575,
   71.8678,       602,
   71.8879,       651,
   71.9081,       646,
   71.9283,       581,
   71.9484,       606,
   71.9686,       597,
   71.9888,       595,
   72.0089,       622,
   72.0291,       614,
   72.0493,       631,
   72.0694,       600,
   72.0896,       597,
   72.1098,       645,
     72.13,       594,
   72.1501,       612,
   72.1703,       605,
   72.1905,       572,
   72.2106,       573,
   72.2308,       579,
    72.251,       576,
   72.2711,       610,
   72.2913,       617,
   72.3115,       589,
   72.3316,       593,
   72.3518,       636,
    72.372,       587,
   72.3921,       620,
   72.4123,       606,
   72.4325,       566,
   72.4526,       643,
   72.4728,       593,
    72.493,       640,
   72.5132,       625,
   72.5333,       619,
   72.5535,       606,
   72.5737,       580,
   72.5938,       607,
    72.614,       542,
   72.6342,       574,
   72.6543,       621,
   72.6745,       540,
   72.6947,       622,
   72.7148,       627,
    72.735,       646,
   72.7552,       627,
   72.7753,       605,
   72.7955,       620,
   72.8157,       590,
   72.8358,       618,
    72.856,       575,
   72.8762,       575,
   72.8964,       621,
   72.9165,       636,
   72.9367,       601,
   72.9569,       617,
    72.977,       619,
   72.9972,       616,
   73.0174,       647,
   73.0375,       585,
   73.0577,       584,
   73.0779,       621,
    73.098,       577,
   73.1182,       633,
   73.1384,       611,
   73.1585,       638,
   73.1787,       602,
   73.1989,       626,
   73.2191,       647,
   73.2392,       628,
   73.2594,       620,
   73.2796,       637,
   73.2997,       616,
   73.3199,       612,
   73.3401,       623,
   73.3602,       612,
   73.3804,       584,
   73.4006,       611,
   73.4207,       670,
   73.4409,       601,
   73.4611,       620,
   73.4812,       619,
   73.5014,       613,
   73.5216,       637,
   73.5417,       615,
   73.5619,       661,
   73.5821,       638,
   73.6023,       625,
   73.6224,       641,
   73.6426,       675,
   73.6628,       578,
   73.6829,       608,
   73.7031,       665,
   73.7233,       666,
   73.7434,       705,
   73.7636,       679,
   73.7838,       654,
   73.8039,       686,
   73.8241,       747,
   73.8443,       749,
   73.8644,       730,
   73.8846,       783,
   73.9048,       777,
   73.9249,       801,
   73.9451,       799,
   73.9653,       805,
   73.9855,       815,
   74.0056,       799,
   74.0258,       880,
    74.046,       820,
   74.0661,       846,
   74.0863,       903,
   74.1065,       991,
   74.1266,      1077,
   74.1468,      1206,
    74.167,      1453,
   74.1871,      1763,
   74.2073,      2455,
   74.2275,      3844,
   74.2476,      6125,
   74.2678,      9058,
    74.288,     10767,
   74.3082,      9217,
   74.3283,      6298,
   74.3485,      3852,
   74.3687,      2712,
   74.3888,      2036,
    74.409,      1983,
   74.4292,      2261,
   74.4493,      2876,
   74.4695,      4161,
   74.4897,      5430,
   74.5098,      5532,
     74.53,      4691,
   74.5502,      3201,
   74.5703,      2180,
   74.5905,      1552,
   74.6107,      1234,
   74.6308,      1045,
    74.651,       919,
   74.6712,       871,
   74.6914,       887,
   74.7115,       804,
   74.7317,       819,
   74.7519,       800,
    74.772,       718,
   74.7922,       738,
   74.8124,       726,
   74.8325,       667,
   74.8527,       665,
   74.8729,       675,
    74.893,       694,
   74.9132,       652,
   74.9334,       672,
   74.9535,       687,
   74.9737,       648,
   74.9939,       658,
    75.014,       691,
   75.0342,       653,
   75.0544,       653,
   75.0746,       604,
   75.0947,       632,
   75.1149,       623,
   75.1351,       620,
   75.1552,       654,
   75.1754,       598,
   75.1956,       611,
   75.2157,       627,
   75.2359,       660,
   75.2561,       635,
   75.2762,       610,
   75.2964,       643,
   75.3166,       616,
   75.3367,       600,
   75.3569,       609,
   75.3771,       575,
   75.3973,       620,
   75.4174,       602,
   75.4376,       619,
   75.4578,       613,
   75.4779,       645,
   75.4981,       618,
   75.5183,       624,
   75.5384,       634,
   75.5586,       575,
   75.5788,       593,
   75.5989,       570,
   75.6191,       631,
   75.6393,       623,
   75.6594,       602,
   75.6796,       600,
   75.6998,       602,
   75.7199,       618,
   75.7401,       632,
   75.7603,       606,
   75.7805,       577,
   75.8006,       607,
   75.8208,       670,
    75.841,       576,
   75.8611,       634,
   75.8813,       622,
   75.9015,       613,
   75.9216,       610,
   75.9418,       576,
    75.962,       608,
   75.9821,       565,
   76.0023,       588,
   76.0225,       623,
   76.0426,       603,
   76.0628,       590,
    76.083,       646,
   76.1032,       596,
   76.1233,       635,
   76.1435,       572,
   76.1637,       604,
   76.1838,       573,
    76.204,       637,
   76.2242,       642,
   76.2443,       568,
   76.2645,       567,
   76.2847,       633,
   76.3048,       619,
    76.325,       601,
   76.3452,       595,
   76.3653,       618,
   76.3855,       589,
   76.4057,       654,
   76.4258,       606,
    76.446,       623,
   76.4662,       573,
   76.4864,       618,
   76.5065,       616,
   76.5267,       600,
   76.5469,       559,
    76.567,       644,
   76.5872,       604,
   76.6074,       635,
   76.6275,       574,
   76.6477,       600,
   76.6679,       619,
    76.688,       568,
   76.7082,       567,
   76.7284,       619,
   76.7485,       587,
   76.7687,       592,
   76.7889,       620,
    76.809,       601,
   76.8292,       625,
   76.8494,       562,
   76.8696,       574,
   76.8897,       603,
   76.9099,       591,
   76.9301,       598,
   76.9502,       577,
   76.9704,       606,
   76.9906,       651,
   77.0107,       619,
   77.0309,       571,
   77.0511,       605,
   77.0712,       610,
   77.0914,       614,
   77.1116,       594,
   77.1317,       591,
   77.1519,       572,
   77.1721,       583,
   77.1923,       600,
   77.2124,       634,
   77.2326,       605,
   77.2528,       599,
   77.2729,       593,
   77.2931,       618,
   77.3133,       625,
   77.3334,       614,
   77.3536,       576,
   77.3738,       578,
   77.3939,       603,
   77.4141,       587,
   77.4343,       626,
   77.4544,       608,
   77.4746,       563,
   77.4948,       603,
   77.5149,       618,
   77.5351,       561,
   77.5553,       586,
   77.5755,       661,
   77.5956,       594,
   77.6158,       591,
    77.636,       618,
   77.6561,       615,
   77.6763,       592,
   77.6965,       581,
   77.7166,       622,
   77.7368,       559,
    77.757,       606,
   77.7771,       597,
   77.7973,       622,
   77.8175,       623,
   77.8376,       590,
   77.8578,       610,
    77.878,       606,
   77.8981,       589,
   77.9183,       601,
   77.9385,       599,
   77.9587,       609,
   77.9788,       557,
    77.999,       586,
