;RAW4.00
[RawHeader]
Date=11/26/2025
EstimatedTotalTime=426.6
FurtherDQLReading=0
HardwareIndicator=65519
MeasuredTotalTime=4.29499
MeasurementFlag=1
NumberOfMeasuredRanges=1
NumberOfRanges=1
Time=19:01:19

[VarInfo]
Type=USER
Flags=0
Value=Lab Manager

[VarInfo]
Type=SAMPLEID
Flags=0
Value=Commander Sample ID

[VarInfo]
Type=COMMENT
Flags=0
Value=

[VarInfo]
Type=UTF
Flags=0
Value=

[VarInfo]
Type=CREATOR
Flags=0
Value=V5Converter

[VarInfo]
Type=CREATOR_VERSION
Flags=0
Value=4.4.16.0

[HardwareConfiguration]
AbsorptionFactor=9999
ActivateAbsorber=0
Alpha1=1.5406
Alpha2=1.54439
AlphaAverage=1.54184
AlphaRatio=0.5
Analyzer=0
Anode=Cu
AntiScatteringSlit=9999
BeamOpticsFlags=0
Beta=1.39222
BetaRelativeIntensity=0
DeactivateAbsorber=0
DetectorSlit=9999
DivergenceSlit=9999
GoniometerControl=0
GoniometerDiameter=282
GoniometerModel=256
GoniometerStage=7
Monochromator=0
NearSampleSlit=9999
PrimarySollerSlit=9999
SampleChanger=0
SecondSollerSlit=9999
SynchronousAxis=0
ThinFilmAttachment=9999
WaveUnit=A

[RangeHeader]
ActuallyUsedLambda=1.54184
AdditionalDetectorMask=257
DataRecordLength=4
DelayTime=0
DisplayPlaneNumber=0
EstimatedScanTime=427
ExtraParametersMask=0
GeneratorCurrent=10
GeneratorVoltage=30
Increment=0.0201685
Increment3=0
NumberOfCompletedData=1885
NumberOfCounts=1
NumberOfDetectors=0
NumberOfDrives=3
NumberOfEncoderDrives=0
NumberOfMeasuredData=1885
NumberOfVaryingParameters=0
RangeStartTime=0
RotationSpeed=0
ScanMode=1
ScanType=Locked Coupled
SimulatedMeasConditions=0
SlitChangerIn=0
SmootingWidth=0
Start=40.0015
Steps=1885
SynchronousRotation=0
Time=33

[VarInfo]
Type=PSD_DISCRIM
Flags=0
Value=0.11;0.5

[VarInfo]
Type=OPTICS_V5
Flags=0
Value=H4sIAAAAAAAEAO1d63KjOhJ+Fda/zqmtBIPtXKaITzm2J+OaOHbFTnKmtrZcBORYZzC4AOey//d99hl2X2x1QViIS8C3JBN+TCaodWm6+2vUUkfS/nieW9IjcD3o2GcV5bBakYBtOCa0H84qS396oBxV/mhqF44NnTnwgdt25gvHBrbf0X1dQq1t78uzB88qM99ffJHlp6enw6faoeM+yGq1qsh/9i9HxgzM9QNoe75uG6AStjJfb1WRbqEH7y1wpc/BWWXFR0joAM9w4cInL/Bj4UHLsSW+3oXrLBc9NBZ6t3Pgojcb3P8FDH+o+7OzitwBj9AAMt+CrxUfl1Lblu55QRehTORzoM8XqLDt2L4ObeBy/coBc6yHluEvdYtxoR6o1ePT02O5h8TkLue4tzhrTW2EZGjqqBswQr3oFvyXjl+9OdUtD2hyGln7c259hcAyrwHqHhq4EDFpA/KbJ8lNjfKD1ToCFipvdm00JDA1OUbR6Btwou9Ab2HpL824AjQ5tXK8m+bF4OrHhPzodEft64TGrBVWDOsoPhpP1bBWhrxWvISy1r0hIUP+4r8skMLHrm78xG8sGODQhXPdfSHkZBMMakgD9GxISBvSeHkPOIFIQeOidilHx44baRI9r5mSRmyEDSxUYBJZ3blu/xy4JnCvAfYzAL0wsdX3b8s5NVnMwIfj6+8T9KPV/l7IxHm5Jhp5z0OvBh9BE+kGCS98DAk920dCZMIVSikeHA9SJulgmhwp1bAq2ZMXfZT4B2LSAxc+QFu3ogSlwl6OWi7Ssb/0moPwnSLFGmsYPPedJdIj0qJQrgWE0MJ5JCOdEXICmjFtjmnJUA7J0tRxpRHQLUBtYA3AytxYcejGiMm4JZa46kmmLG0LrhEWBa3xcus++8A2MZDfDYZpCWdMkQKtj5nwHfcltGVFk+OFGseMJxH2qHoYWND7cnJosmJN5ku1uCnh1+H65qyTKx3Y545jAR1NEG5s6BPpdiDSG56bXcI59IlYwiKvWdVk7knrgKm+tPxb3VoCboigVyQ96CPXTshnFewlKri/oQta5l9LD8GnYEuZYx67mbHTJoqe6ZblPK0cjVCOarZnwPgJzFUVVqC1ESPOHKsWvx33pNH5Zl7erhEyxkg2xVq1lr7TdoHug6HrLIDrvzAWEyiR9/eIRfdMhLKr5fweuE21rslCEdaQRS08UPF//xMyUSUc9B0TNG8Quqbos4xMnTwz90Y+PzEHluy7tuWt5HgP/ND5vNXOHBXjLvaN2aNbYuh5A79Evm3IJvErCL6JJ23LP418rD3OPSHRTOHDEjnla/gw85sIdabECnU0BoKwUKWYS+vrz5fAfvBnTbXRwKJhj2nOjrJISkNktZevObqMVm/q5DL4SnFwGS02cm5pFninPwKqkpa1mOmKYIUieVuWOJh2nCVqyWzxf//ehzWm2Nxw9uJBQ7dIeQJnTA/KYaNePXrNFtfo7ca2MPfItOjcf/WMZelYS+paugfVBtErK9H60Ibz5bx5oBwenx4fndaUWv3kSK0pjePu32vVE4S4oAZGIvklvWZQ4W0Rs4b0UpC0Rk/7QJiajTD10yOsXjvdJsRYdyXGNhLfFkDGuto1yh6Bqz+IoV6M/ulxppzUt4kz1l2Js43EtwWcsa52jLNz4OupIMPET46w2qmqqttD2Kq7EmEbiW9jhK262jHCrvGaRirECHVXGHuvCFutth02NsJWrKMSVWsKbh08xTrZCZK+OsbSG7gQ2D5ZHRSgJJK3tspG1g4H057tH9XfH6CibEVXr/OjKbkXhfRCBYDfqOeDOWLs0nmABl3VvJn0rm5bl73OpP2tN9TkFYkJfAye/WbPftQtiMQzg4uVjCJaIvW07+CFjI1lEf6uyTEWsnm67F2lsnIJbSARW0kbWtlk6OEgY+yhA20/e3B1k8GZLoaD0auqCHeKD6S58wgk35HmwJjpNrYKCTmTxd/SeKxl8/ienF2WXefzdFk9bOTm6N5Lz546UqiqhAVciZbr3FOQY3BWIVUkVBrdJr+ZtC6H31rRcrGRhEeyyEjkXXKxo0bYURPZUVPYUbPYUQuzEywL8PxEyoQBQloib5PW7UUWe0HrokySmCrg8D78PeybkkWGzrvjVjIvuH4+FiIbUQEDqBXeyxN46LJSkY3uZbffvRqnSMV2TCAFbaXVSDlkQmfBvNq4EkHsASVZZdetcW+QpTTSOp+8YlOLgL9pYnk4ToQicvl10J4MrpMZJONJkeZyfMe6Ed+xvgA2skTfcYU8TFacvPmcsQFLZ8dr7r82tXQiP3O7dSw/voYXlO4q5vl5u6WEjcypLxqFfRNqVSHyCL4FKaFHctihVBMCjFp1f7FErbF+MBEXRsEvZLo55TW19tJ1sT+LmlpQuitTm7f2YWpolHD6sQ1TaySFsh/E0uKy2LulDZ0nkgHOmxQp25WV3aUEnW+xcHMnRJr5lluqhymm+EkWW+4491hde7Ul3ssWbV9+7YtfJA0UTQyNGXBfyVbbPA8ud74bklUw60j9YgWfilQ/I4dzraYmBmuZ2QhiKJW9qxqLdLI3h6IxR/YytzAXT1vD42MIIXVJnC4nR8cylyaJ7OZRhxZeJcCPHu2eWH2ZQFkmUJYJlGUCZZlA+fE2xcsEyvezJV4mUP6aCCsTKN8TxsoEyl8VZ2UC5XvCWZlA+ashrEygfE8IKxMoywTKMoGyTKAsEyjLBMoygbJMoCwTKMsEyjKBskygLBMoywTKMoGyTKAsEyjLBMoygbJMoHzr+KNMoCwTKD9tAiXLkUS/iumT7KzT+Cmg4tm7GScqd+cL/4UkG4arGcVOT+72h4PRhP4scnoyGTg0xcTzk2U+BzLzcGMl7XBjde+HGw8WbefceR5MR45lATfhiGNKyDjkmKsg/WbotmTQQ8ElNJZEifQE7N/XgX9k+LhXSSBnuYaE6hunwkb7FPSZfOxxRGTIPPKL8PePe2KymphYK0bAR+scevtxXAin6Q2diJrmRGpv50S+wmdgEkNlcw/RmVjQz3IliCz1U2CAaRv4kdXICV5EJGb6ELHy5h6E61FQZYr/YA2o98gntQ/sOmq5XMfxeudlE7OmVzSsTJpYMhZe0hcRy1SR/jGf/zPDjH/DR/7fA2QfErQ9hAVgol98R9I5hWWaMq5mhBds4KeJUp0oaQYcIb5mwIVtN52ZmPP5qH/5US30lx930PRnYm4HLtvZktP8/WxBxzgL44DNsuvjPeVdZqh+7nWGuODWWWeI97KTtI5vABumgB1a+LnBszXslNBZz+i3gpzt3wSirjOzGenzhQXuZgBYY/QC/KUgIkkjH65UJ0ChmfamMj+F+lCxGJtFbxiJ1dIisfpGkRjhMR6HvT9h3thLD5hkeHHgLInKwm1g17oJl16CldWVYB+fXrg3mE494KdZfesZevz3Iay2B1ceYybnbh1ywVU1LSlVPTypn6qNRkNN8LvHjcOTRv24dqQqvK8VhNAM7mETbitc+w7DEUCRgJl9i2FYh7v9roNCXwNnMmzhLkORh4SYKLFGsfsMwz42ifVFRj70nYaF9FrM/4zwzYaj4jcbRuW787sNw+F2cbvhyRss3uHlOks3wMyxzMQtgMsX+xm8pBxzcfnj6s/ujy654bCjSsOZ7olX4OYEsRyOEwezQMpa3mDWKOO8X3k4Wj2jProvYAvX6KYzLmrzl7v28CTPUlxNiU9Yi8wL0ecUu0XdWrmWfniNJk2pxn6HJHazGl4xZ9PpjyfkXwFHw4ba6R6gstmscZebgP09bgIKCIswkLYN2N/zNmAmj6JSs3YC+59rJ1Cp53Ii1c+wFVhGSkUjpbRAqXF4dHrSUJRqPWmBqqEcHldP68dqfQeB0sontAHGieA9hcKI4+SmzLSadMAw70kjnLfkkW8dVkPLMIDnOS4E3hoRE+Mi7j2jlLwRUvyl1/ekrIcPHRqtqcpiLudicNWekB9FHA7lZ+eh0Ri4qHQnkdHp3mdFwxkkShPAfO0EGXBRYgTUqKlErdE1Wb0CGJXZGHSdNqGDKCsJ1TJnP6vqMuJUZpxuDuAUxgVFpsREEgUYMFu+rxszPNBZ5WDPRwluc5pzmitr4SQ+y+l5TBQhKMMCjfMcZLfIWj48ALPjYkzSv8ZE3eHvWs9sIu2S3oNHTCEVRwtgwGnwt6KsUpyC4BLvvcgEK46DYs5u+K03mpAfRZxdFKHbnGBVi0yvQisOP5lEYfRDEPwf22IqXU7pckqXI7qcECvsd+8VLsZPznhGTjB6jZVIzZz8ZA+dc9yig6ZEJvFifFQxXo8YAd9H0PIkfi6GHAXNPKxILbzB7vVR6AbplI5NtLGOuVT/5i2e1Rn4EFu+VFtBkewhB6uqmiyUa3yqI/WAkWUTj/6JxSqYYK6D6Pv/u9RXv2COAAA=

[PSD]
ActualTwoTheta=9999
FirstUsedChannel=0
FixedPSD=0
PSDOpening=4.99171
PSDType=5

[Drive]
DriveFlags=1
DriveName=2Theta
DriveNumber=2
DriveOffset=0
OffsetIndex=0
OscillationAmplitude=0
OscillationSpeed=0
StartPosition=40.0015

[Drive]
DriveFlags=1
DriveName=Theta
DriveNumber=1
DriveOffset=0
OffsetIndex=0
OscillationAmplitude=0
OscillationSpeed=0
StartPosition=20.0007

[Drive]
DriveFlags=1
DriveName=Phi
DriveNumber=3
DriveOffset=0
OffsetIndex=0
OscillationAmplitude=0
OscillationSpeed=0
StartPosition=0

[Data]
     Angle,       PSD,
   40.0015,       651,
   40.0217,       627,
   40.0418,       662,
    40.062,       607,
   40.0822,       666,
   40.1023,       628,
   40.1225,       602,
   40.1427,       604,
   40.1628,       649,
    40.183,       651,
   40.2032,       642,
   40.2233,       652,
   40.2435,       630,
   40.2637,       673,
   40.2838,       621,
    40.304,       652,
   40.3242,       600,
   40.3444,       653,
   40.3645,       647,
   40.3847,       607,
   40.4049,       638,
    40.425,       660,
   40.4452,       643,
   40.4654,       644,
   40.4855,       666,
   40.5057,       652,
   40.5259,       594,
    40.546,       623,
   40.5662,       664,
   40.5864,       637,
   40.6065,       629,
   40.6267,       642,
   40.6469,       622,
   40.6671,       597,
   40.6872,       646,
   40.7074,       593,
   40.7276,       617,
   40.7477,       598,
   40.7679,       618,
   40.7881,       629,
   40.8082,       586,
   40.8284,       653,
   40.8486,       622,
   40.8687,       707,
   40.8889,       632,
   40.9091,       657,
   40.9292,       651,
   40.9494,       593,
   40.9696,       668,
   40.9897,       664,
   41.0099,       595,
   41.0301,       643,
   41.0503,       661,
   41.0704,       644,
   41.0906,       640,
   41.1108,       655,
   41.1309,       641,
   41.1511,       665,
   41.1713,       697,
   41.1914,       589,
   41.2116,       620,
   41.2318,       626,
   41.2519,       665,
   41.2721,       676,
   41.2923,       608,
   41.3124,       602,
   41.3326,       639,
   41.3528,       632,
   41.3729,       669,
   41.3931,       632,
   41.4133,       639,
   41.4335,       675,
   41.4536,       654,
   41.4738,       667,
    41.494,       688,
   41.5141,       628,
   41.5343,       678,
   41.5545,       638,
   41.5746,       636,
   41.5948,       605,
    41.615,       654,
   41.6351,       623,
   41.6553,       638,
   41.6755,       677,
   41.6956,       642,
   41.7158,       661,
    41.736,       652,
   41.7562,       655,
   41.7763,       700,
   41.7965,       662,
   41.8167,       693,
   41.8368,       769,
    41.857,       749,
   41.8772,       724,
   41.8973,       734,
   41.9175,       748,
   41.9377,       723,
   41.9578,       689,
    41.978,       752,
   41.9982,       739,
   42.0183,       754,
   42.0385,       745,
   42.0587,       801,
   42.0788,       792,
    42.099,       750,
   42.1192,       754,
   42.1394,       804,
   42.1595,       768,
   42.1797,       727,
   42.1999,       775,
     42.22,       756,
   42.2402,       794,
   42.2604,       735,
   42.2805,       798,
   42.3007,       792,
   42.3209,       749,
    42.341,       772,
   42.3612,       784,
   42.3814,       784,
   42.4015,       798,
   42.4217,       790,
   42.4419,       812,
    42.462,       832,
   42.4822,       797,
   42.5024,       804,
   42.5226,       826,
   42.5427,       822,
   42.5629,       790,
   42.5831,       826,
   42.6032,       759,
   42.6234,       808,
   42.6436,       772,
   42.6637,       814,
   42.6839,       853,
   42.7041,       802,
   42.7242,       819,
   42.7444,       819,
   42.7646,       861,
   42.7847,       820,
   42.8049,       835,
   42.8251,       864,
   42.8453,       857,
   42.8654,       929,
   42.8856,       907,
   42.9058,      1050,
   42.9259,       996,
   42.9461,      1076,
   42.9663,      1102,
   42.9864,      1164,
   43.0066,      1155,
   43.0268,      1282,
   43.0469,      1361,
   43.0671,      1391,
   43.0873,      1462,
   43.1074,      1509,
   43.1276,      1722,
   43.1478,      1893,
   43.1679,      2139,
   43.1881,      2249,
   43.2083,      2262,
   43.2285,      2456,
   43.2486,      2969,
   43.2688,      3929,
    43.289,      5897,
   43.3091,     11299,
   43.3293,     25109,
   43.3495,     50044,
   43.3696,     62225,
   43.3898,     41804,
     43.41,     19981,
   43.4301,     14151,
   43.4503,     20435,
   43.4705,     30898,
   43.4906,     29504,
   43.5108,     16964,
    43.531,      7637,
   43.5511,      4209,
   43.5713,      2928,
   43.5915,      2462,
   43.6117,      2241,
   43.6318,      1938,
    43.652,      1808,
   43.6722,      1623,
   43.6923,      1475,
   43.7125,      1321,
   43.7327,      1235,
   43.7528,      1230,
    43.773,      1120,
   43.7932,      1048,
   43.8133,      1076,
   43.8335,       936,
   43.8537,       977,
   43.8738,       909,
    43.894,       858,
   43.9142,       922,
   43.9344,       941,
   43.9545,       890,
   43.9747,       839,
   43.9949,       844,
    44.015,       818,
   44.0352,       886,
   44.0554,       767,
   44.0755,       792,
   44.0957,       832,
   44.1159,       839,
    44.136,       742,
   44.1562,       759,
   44.1764,       777,
   44.1965,       783,
   44.2167,       800,
   44.2369,       772,
    44.257,       780,
   44.2772,       740,
   44.2974,       764,
   44.3176,       789,
   44.3377,       782,
   44.3579,       754,
   44.3781,       798,
   44.3982,       805,
   44.4184,       725,
   44.4386,       762,
   44.4587,       816,
   44.4789,       789,
   44.4991,       721,
   44.5192,       741,
   44.5394,       730,
   44.5596,       739,
   44.5797,       754,
   44.5999,       721,
   44.6201,       751,
   44.6402,       737,
   44.6604,       766,
   44.6806,       747,
   44.7008,       733,
   44.7209,       729,
   44.7411,       671,
   44.7613,       725,
   44.7814,       722,
   44.8016,       745,
   44.8218,       756,
   44.8419,       725,
   44.8621,       712,
   44.8823,       788,
   44.9024,       734,
   44.9226,       745,
   44.9428,       712,
   44.9629,       750,
   44.9831,       713,
   45.0033,       724,
   45.0235,       697,
   45.0436,       750,
   45.0638,       681,
    45.084,       722,
   45.1041,       715,
   45.1243,       722,
   45.1445,       711,
   45.1646,       754,
   45.1848,       761,
    45.205,       748,
   45.2251,       752,
   45.2453,       728,
   45.2655,       689,
   45.2856,       754,
   45.3058,       745,
    45.326,       676,
   45.3461,       829,
   45.3663,       744,
   45.3865,       770,
   45.4067,       716,
   45.4268,       783,
    45.447,       745,
   45.4672,       680,
   45.4873,       710,
   45.5075,       670,
   45.5277,       712,
   45.5478,       747,
    45.568,       660,
   45.5882,       677,
   45.6083,       755,
   45.6285,       705,
   45.6487,       757,
   45.6688,       700,
    45.689,       751,
   45.7092,       764,
   45.7294,       721,
   45.7495,       695,
   45.7697,       667,
   45.7899,       705,
     45.81,       692,
   45.8302,       760,
   45.8504,       673,
   45.8705,       704,
   45.8907,       693,
   45.9109,       743,
    45.931,       670,
   45.9512,       710,
   45.9714,       703,
   45.9915,       684,
   46.0117,       667,
   46.0319,       755,
    46.052,       648,
   46.0722,       714,
   46.0924,       722,
   46.1126,       665,
   46.1327,       720,
   46.1529,       703,
   46.1731,       729,
   46.1932,       722,
   46.2134,       693,
   46.2336,       685,
   46.2537,       695,
   46.2739,       731,
   46.2941,       702,
   46.3142,       711,
   46.3344,       657,
   46.3546,       674,
   46.3747,       663,
   46.3949,       689,
   46.4151,       686,
   46.4352,       697,
   46.4554,       682,
   46.4756,       702,
   46.4958,       667,
   46.5159,       742,
   46.5361,       700,
   46.5563,       706,
   46.5764,       725,
   46.5966,       708,
   46.6168,       678,
   46.6369,       712,
   46.6571,       685,
   46.6773,       702,
   46.6974,       698,
   46.7176,       676,
   46.7378,       634,
   46.7579,       722,
   46.7781,       693,
   46.7983,       709,
   46.8185,       760,
   46.8386,       712,
   46.8588,       666,
    46.879,       670,
   46.8991,       682,
   46.9193,       674,
   46.9395,       681,
   46.9596,       650,
   46.9798,       670,
        47,       713,
   47.0201,       660,
   47.0403,       675,
   47.0605,       697,
   47.0806,       708,
   47.1008,       713,
    47.121,       667,
   47.1411,       704,
   47.1613,       713,
   47.1815,       727,
   47.2017,       665,
   47.2218,       713,
    47.242,       691,
   47.2622,       695,
   47.2823,       703,
   47.3025,       672,
   47.3227,       746,
   47.3428,       691,
    47.363,       685,
   47.3832,       670,
   47.4033,       691,
   47.4235,       695,
   47.4437,       661,
   47.4638,       654,
    47.484,       677,
   47.5042,       693,
   47.5243,       684,
   47.5445,       715,
   47.5647,       729,
   47.5849,       705,
    47.605,       673,
   47.6252,       666,
   47.6454,       662,
   47.6655,       713,
   47.6857,       668,
   47.7059,       690,
    47.726,       691,
   47.7462,       670,
   47.7664,       693,
   47.7865,       688,
   47.8067,       684,
   47.8269,       623,
    47.847,       666,
   47.8672,       691,
   47.8874,       721,
   47.9076,       660,
   47.9277,       706,
   47.9479,       704,
   47.9681,       680,
   47.9882,       679,
   48.0084,       690,
   48.0286,       677,
   48.0487,       681,
   48.0689,       668,
   48.0891,       659,
   48.1092,       712,
   48.1294,       693,
   48.1496,       682,
   48.1697,       655,
   48.1899,       695,
   48.2101,       661,
   48.2302,       653,
   48.2504,       662,
   48.2706,       640,
   48.2908,       678,
   48.3109,       667,
   48.3311,       655,
   48.3513,       657,
   48.3714,       647,
   48.3916,       633,
   48.4118,       695,
   48.4319,       656,
   48.4521,       694,
   48.4723,       689,
   48.4924,       637,
   48.5126,       679,
   48.5328,       668,
   48.5529,       683,
   48.5731,       691,
   48.5933,       706,
   48.6134,       698,
   48.6336,       706,
   48.6538,       762,
    48.674,       645,
   48.6941,       674,
   48.7143,       738,
   48.7345,       679,
   48.7546,       707,
   48.7748,       730,
    48.795,       729,
   48.8151,       664,
   48.8353,       723,
   48.8555,       688,
   48.8756,       703,
   48.8958,       686,
    48.916,       724,
   48.9361,       687,
   48.9563,       718,
   48.9765,       669,
   48.9967,       698,
   49.0168,       708,
    49.037,       746,
   49.0572,       720,
   49.0773,       691,
   49.0975,       657,
   49.1177,       709,
   49.1378,       683,
    49.158,       645,
   49.1782,       688,
   49.1983,       710,
   49.2185,       717,
   49.2387,       691,
   49.2588,       714,
    49.279,       776,
   49.2992,       755,
   49.3193,       713,
   49.3395,       673,
   49.3597,       715,
   49.3799,       694,
      49.4,       713,
   49.4202,       727,
   49.4404,       704,
   49.4605,       694,
   49.4807,       697,
   49.5009,       676,
    49.521,       674,
   49.5412,       711,
   49.5614,       703,
   49.5815,       710,
   49.6017,       708,
   49.6219,       699,
    49.642,       706,
   49.6622,       763,
   49.6824,       699,
   49.7025,       697,
   49.7227,       714,
   49.7429,       713,
   49.7631,       676,
   49.7832,       712,
   49.8034,       702,
   49.8236,       770,
   49.8437,       737,
   49.8639,       744,
   49.8841,       736,
   49.9042,       733,
   49.9244,       794,
   49.9446,       737,
   49.9647,       761,
   49.9849,       755,
   50.0051,       814,
   50.0252,       776,
   50.0454,       810,
   50.0656,       793,
   50.0858,       843,
   50.1059,       821,
   50.1261,       890,
   50.1463,       873,
   50.1664,       872,
   50.1866,       957,
   50.2068,       973,
   50.2269,       980,
   50.2471,      1075,
   50.2673,      1113,
   50.2874,      1119,
   50.3076,      1219,
   50.3278,      1327,
   50.3479,      1407,
   50.3681,      1667,
   50.3883,      1981,
   50.4084,      2647,
   50.4286,      3877,
   50.4488,      6305,
    50.469,     10408,
   50.4891,     14218,
   50.5093,     14066,
   50.5295,      9988,
   50.5496,      6486,
   50.5698,      5126,
     50.59,      5548,
   50.6101,      7165,
   50.6303,      8061,
   50.6505,      6878,
   50.6706,      4856,
   50.6908,      3032,
    50.711,      2070,
   50.7311,      1668,
   50.7513,      1464,
   50.7715,      1209,
   50.7917,      1145,
   50.8118,      1079,
    50.832,       975,
   50.8522,       975,
   50.8723,       920,
   50.8925,       930,
   50.9127,       817,
   50.9328,       826,
    50.953,       766,
   50.9732,       811,
   50.9933,       804,
   51.0135,       745,
   51.0337,       719,
   51.0538,       739,
    51.074,       767,
   51.0942,       728,
   51.1143,       765,
   51.1345,       707,
   51.1547,       759,
   51.1749,       736,
    51.195,       739,
   51.2152,       728,
   51.2354,       745,
   51.2555,       670,
   51.2757,       718,
   51.2959,       729,
    51.316,       700,
   51.3362,       687,
   51.3564,       671,
   51.3765,       704,
   51.3967,       750,
   51.4169,       715,
    51.437,       690,
   51.4572,       701,
   51.4774,       691,
   51.4975,       704,
   51.5177,       657,
   51.5379,       723,
   51.5581,       701,
   51.5782,       711,
   51.5984,       666,
   51.6186,       696,
   51.6387,       679,
   51.6589,       663,
   51.6791,       724,
   51.6992,       637,
   51.7194,       660,
   51.7396,       663,
   51.7597,       680,
   51.7799,       701,
   51.8001,       682,
   51.8202,       668,
   51.8404,       689,
   51.8606,       684,
   51.8808,       640,
   51.9009,       715,
   51.9211,       708,
   51.9413,       665,
   51.9614,       693,
   51.9816,       663,
   52.0018,       655,
   52.0219,       657,
   52.0421,       665,
   52.0623,       666,
   52.0824,       696,
   52.1026,       697,
   52.1228,       676,
   52.1429,       607,
   52.1631,       661,
   52.1833,       673,
   52.2034,       614,
   52.2236,       681,
   52.2438,       684,
    52.264,       674,
   52.2841,       627,
   52.3043,       641,
   52.3245,       661,
   52.3446,       661,
   52.3648,       664,
    52.385,       672,
   52.4051,       676,
   52.4253,       738,
   52.4455,       658,
   52.4656,       664,
   52.4858,       654,
    52.506,       651,
   52.5261,       661,
   52.5463,       646,
   52.5665,       670,
   52.5866,       635,
   52.6068,       664,
    52.627,       695,
   52.6472,       651,
   52.6673,       692,
   52.6875,       729,
   52.7077,       679,
   52.7278,       655,
    52.748,       660,
   52.7682,       710,
   52.7883,       670,
   52.8085,       657,
   52.8287,       677,
   52.8488,       668,
    52.869,       648,
   52.8892,       640,
   52.9093,       686,
   52.9295,       644,
   52.9497,       664,
   52.9699,       613,
     52.99,       669,
   53.0102,       715,
   53.0304,       674,
   53.0505,       682,
   53.0707,       611,
   53.0909,       630,
    53.111,       624,
   53.1312,       677,
   53.1514,       632,
   53.1715,       682,
   53.1917,       657,
   53.2119,       671,
    53.232,       624,
   53.2522,       656,
   53.2724,       681,
   53.2925,       661,
   53.3127,       660,
   53.3329,       622,
   53.3531,       668,
   53.3732,       652,
   53.3934,       719,
   53.4136,       622,
   53.4337,       626,
   53.4539,       650,
   53.4741,       624,
   53.4942,       625,
   53.5144,       674,
   53.5346,       663,
   53.5547,       644,
   53.5749,       647,
   53.5951,       632,
   53.6152,       671,
   53.6354,       637,
   53.6556,       642,
   53.6757,       679,
   53.6959,       627,
   53.7161,       632,
   53.7363,       600,
   53.7564,       660,
   53.7766,       649,
   53.7968,       651,
   53.8169,       657,
   53.8371,       693,
   53.8573,       644,
   53.8774,       666,
   53.8976,       658,
   53.9178,       660,
   53.9379,       595,
   53.9581,       655,
   53.9783,       647,
   53.9984,       649,
   54.0186,       638,
   54.0388,       650,
    54.059,       657,
   54.0791,       627,
   54.0993,       620,
   54.1195,       687,
   54.1396,       670,
   54.1598,       666,
     54.18,       653,
   54.2001,       676,
   54.2203,       636,
   54.2405,       643,
   54.2606,       635,
   54.2808,       657,
    54.301,       630,
   54.3211,       635,
   54.3413,       674,
   54.3615,       653,
   54.3816,       630,
   54.4018,       680,
    54.422,       631,
   54.4422,       662,
   54.4623,       622,
   54.4825,       633,
   54.5027,       619,
   54.5228,       615,
    54.543,       655,
   54.5632,       661,
   54.5833,       682,
   54.6035,       648,
   54.6237,       663,
   54.6438,       681,
    54.664,       636,
   54.6842,       661,
   54.7043,       644,
   54.7245,       656,
   54.7447,       662,
   54.7648,       591,
    54.785,       664,
   54.8052,       647,
   54.8254,       612,
   54.8455,       626,
   54.8657,       603,
   54.8859,       661,
    54.906,       668,
   54.9262,       622,
   54.9464,       680,
   54.9665,       629,
   54.9867,       659,
   55.0069,       616,
    55.027,       620,
   55.0472,       634,
   55.0674,       632,
   55.0875,       634,
   55.1077,       649,
   55.1279,       647,
   55.1481,       616,
   55.1682,       639,
   55.1884,       636,
   55.2086,       637,
   55.2287,       642,
   55.2489,       708,
   55.2691,       611,
   55.2892,       700,
   55.3094,       711,
   55.3296,       632,
   55.3497,       626,
   55.3699,       624,
   55.3901,       646,
   55.4102,       659,
   55.4304,       651,
   55.4506,       615,
   55.4707,       666,
   55.4909,       641,
   55.5111,       648,
   55.5313,       626,
   55.5514,       655,
   55.5716,       650,
   55.5918,       648,
   55.6119,       630,
   55.6321,       673,
   55.6523,       630,
   55.6724,       684,
   55.6926,       622,
   55.7128,       632,
   55.7329,       620,
   55.7531,       637,
   55.7733,       658,
   55.7934,       720,
   55.8136,       642,
   55.8338,       639,
    55.854,       633,
   55.8741,       694,
   55.8943,       677,
   55.9145,       671,
   55.9346,       666,
   55.9548,       637,
    55.975,       675,
   55.9951,       639,
   56.0153,       610,
   56.0355,       634,
   56.0556,       632,
   56.0758,       634,
    56.096,       622,
   56.1161,       629,
   56.1363,       629,
   56.1565,       641,
   56.1766,       650,
   56.1968,       657,
    56.217,       637,
   56.2372,       620,
   56.2573,       667,
   56.2775,       637,
   56.2977,       611,
   56.3178,       638,
    56.338,       646,
   56.3582,       625,
   56.3783,       678,
   56.3985,       622,
   56.4187,       653,
   56.4388,       584,
    56.459,       632,
   56.4792,       598,
   56.4993,       689,
   56.5195,       654,
   56.5397,       648,
   56.5598,       629,
     56.58,       608,
   56.6002,       657,
   56.6204,       620,
   56.6405,       645,
   56.6607,       630,
   56.6809,       618,
    56.701,       652,
   56.7212,       679,
   56.7414,       606,
   56.7615,       650,
   56.7817,       621,
   56.8019,       583,
    56.822,       627,
   56.8422,       653,
   56.8624,       637,
   56.8825,       567,
   56.9027,       643,
   56.9229,       606,
   56.9431,       602,
   56.9632,       615,
   56.9834,       649,
   57.0036,       681,
   57.0237,       638,
   57.0439,       640,
   57.0641,       614,
   57.0842,       643,
   57.1044,       628,
   57.1246,       627,
   57.1447,       665,
   57.1649,       658,
   57.1851,       599,
   57.2052,       687,
   57.2254,       632,
   57.2456,       638,
   57.2657,       649,
   57.2859,       624,
   57.3061,       602,
   57.3263,       658,
   57.3464,       635,
   57.3666,       676,
   57.3868,       611,
   57.4069,       634,
   57.4271,       624,
   57.4473,       617,
   57.4674,       668,
   57.4876,       635,
   57.5078,       631,
   57.5279,       654,
   57.5481,       631,
   57.5683,       595,
   57.5884,       664,
   57.6086,       583,
   57.6288,       640,
   57.6489,       628,
   57.6691,       639,
   57.6893,       597,
   57.7095,       646,
   57.7296,       609,
   57.7498,       620,
     57.77,       624,
   57.7901,       638,
   57.8103,       620,
   57.8305,       651,
   57.8506,       603,
   57.8708,       600,
    57.891,       668,
   57.9111,       597,
   57.9313,       635,
   57.9515,       615,
   57.9716,       647,
   57.9918,       613,
    58.012,       634,
   58.0322,       622,
   58.0523,       626,
   58.0725,       627,
   58.0927,       620,
   58.1128,       618,
    58.133,       644,
   58.1532,       672,
   58.1733,       641,
   58.1935,       646,
   58.2137,       637,
   58.2338,       637,
    58.254,       600,
   58.2742,       661,
   58.2943,       643,
   58.3145,       582,
   58.3347,       631,
   58.3548,       636,
    58.375,       603,
   58.3952,       621,
   58.4154,       638,
   58.4355,       618,
   58.4557,       617,
   58.4759,       629,
    58.496,       640,
   58.5162,       638,
   58.5364,       642,
   58.5565,       617,
   58.5767,       613,
   58.5969,       600,
    58.617,       625,
   58.6372,       639,
   58.6574,       651,
   58.6775,       578,
   58.6977,       670,
   58.7179,       641,
    58.738,       634,
   58.7582,       613,
   58.7784,       656,
   58.7986,       625,
   58.8187,       629,
   58.8389,       624,
   58.8591,       595,
   58.8792,       581,
   58.8994,       617,
   58.9196,       608,
   58.9397,       572,
   58.9599,       632,
   58.9801,       593,
   59.0002,       641,
   59.0204,       607,
   59.0406,       662,
   59.0607,       604,
   59.0809,       636,
   59.1011,       634,
   59.1213,       644,
   59.1414,       600,
   59.1616,       633,
   59.1818,       601,
   59.2019,       608,
   59.2221,       632,
   59.2423,       638,
   59.2624,       631,
   59.2826,       674,
   59.3028,       595,
   59.3229,       648,
   59.3431,       587,
   59.3633,       638,
   59.3834,       586,
   59.4036,       617,
   59.4238,       600,
   59.4439,       598,
   59.4641,       610,
   59.4843,       621,
   59.5045,       684,
   59.5246,       617,
   59.5448,       618,
    59.565,       645,
   59.5851,       635,
   59.6053,       598,
   59.6255,       616,
   59.6456,       593,
   59.6658,       580,
    59.686,       607,
   59.7061,       633,
   59.7263,       633,
   59.7465,       624,
   59.7666,       611,
   59.7868,       637,
    59.807,       646,
   59.8271,       609,
   59.8473,       618,
   59.8675,       651,
   59.8877,       621,
   59.9078,       616,
    59.928,       592,
   59.9482,       618,
   59.9683,       607,
   59.9885,       632,
   60.0087,       602,
   60.0288,       640,
    60.049,       637,
   60.0692,       619,
   60.0893,       591,
   60.1095,       654,
   60.1297,       626,
   60.1498,       679,
     60.17,       600,
   60.1902,       620,
   60.2104,       608,
   60.2305,       581,
   60.2507,       664,
   60.2709,       587,
    60.291,       619,
   60.3112,       651,
   60.3314,       619,
   60.3515,       610,
   60.3717,       590,
   60.3919,       640,
    60.412,       594,
   60.4322,       599,
   60.4524,       628,
   60.4725,       633,
   60.4927,       652,
   60.5129,       627,
    60.533,       602,
   60.5532,       627,
   60.5734,       614,
   60.5936,       590,
   60.6137,       633,
   60.6339,       617,
   60.6541,       622,
   60.6742,       616,
   60.6944,       643,
   60.7146,       569,
   60.7347,       576,
   60.7549,       642,
   60.7751,       595,
   60.7952,       574,
   60.8154,       610,
   60.8356,       624,
   60.8557,       636,
   60.8759,       606,
   60.8961,       614,
   60.9163,       609,
   60.9364,       640,
   60.9566,       625,
   60.9768,       590,
   60.9969,       608,
   61.0171,       621,
   61.0373,       645,
   61.0574,       631,
   61.0776,       627,
   61.0978,       622,
   61.1179,       577,
   61.1381,       629,
   61.1583,       611,
   61.1784,       621,
   61.1986,       644,
   61.2188,       623,
   61.2389,       565,
   61.2591,       636,
   61.2793,       608,
   61.2995,       595,
   61.3196,       579,
   61.3398,       617,
     61.36,       644,
   61.3801,       630,
   61.4003,       652,
   61.4205,       615,
   61.4406,       627,
   61.4608,       624,
    61.481,       613,
   61.5011,       649,
   61.5213,       638,
   61.5415,       640,
   61.5616,       579,
   61.5818,       595,
    61.602,       567,
   61.6221,       645,
   61.6423,       587,
   61.6625,       629,
   61.6827,       615,
   61.7028,       611,
    61.723,       611,
   61.7432,       613,
   61.7633,       578,
   61.7835,       596,
   61.8037,       581,
   61.8238,       573,
    61.844,       575,
   61.8642,       600,
   61.8843,       606,
   61.9045,       601,
   61.9247,       610,
   61.9448,       612,
    61.965,       605,
   61.9852,       596,
   62.0054,       584,
   62.0255,       596,
   62.0457,       616,
   62.0659,       602,
    62.086,       564,
   62.1062,       631,
   62.1264,       598,
   62.1465,       649,
   62.1667,       588,
   62.1869,       628,
    62.207,       627,
   62.2272,       598,
   62.2474,       608,
   62.2675,       591,
   62.2877,       612,
   62.3079,       637,
    62.328,       602,
   62.3482,       611,
   62.3684,       594,
   62.3886,       660,
   62.4087,       602,
   62.4289,       594,
   62.4491,       612,
   62.4692,       614,
   62.4894,       644,
   62.5096,       630,
   62.5297,       578,
   62.5499,       638,
   62.5701,       592,
   62.5902,       609,
   62.6104,       623,
   62.6306,       629,
   62.6507,       595,
   62.6709,       615,
   62.6911,       662,
   62.7112,       597,
   62.7314,       617,
   62.7516,       624,
   62.7718,       618,
   62.7919,       601,
   62.8121,       617,
   62.8323,       623,
   62.8524,       622,
   62.8726,       624,
   62.8928,       648,
   62.9129,       604,
   62.9331,       597,
   62.9533,       653,
   62.9734,       571,
   62.9936,       621,
   63.0138,       605,
   63.0339,       618,
   63.0541,       607,
   63.0743,       619,
   63.0945,       608,
   63.1146,       600,
   63.1348,       604,
    63.155,       603,
   63.1751,       666,
   63.1953,       597,
   63.2155,       599,
   63.2356,       626,
   63.2558,       632,
    63.276,       594,
   63.2961,       629,
   63.3163,       666,
   63.3365,       620,
   63.3566,       627,
   63.3768,       580,
    63.397,       640,
   63.4171,       621,
   63.4373,       604,
   63.4575,       627,
   63.4777,       608,
   63.4978,       607,
    63.518,       604,
   63.5382,       635,
   63.5583,       652,
   63.5785,       643,
   63.5987,       589,
   63.6188,       631,
    63.639,       623,
   63.6592,       615,
   63.6793,       643,
   63.6995,       603,
   63.7197,       569,
   63.7398,       597,
     63.76,       676,
   63.7802,       595,
   63.8003,       587,
   63.8205,       666,
   63.8407,       605,
   63.8609,       591,
    63.881,       622,
   63.9012,       613,
   63.9214,       634,
   63.9415,       567,
   63.9617,       613,
   63.9819,       559,
    64.002,       581,
   64.0222,       592,
   64.0424,       609,
   64.0625,       643,
   64.0827,       649,
   64.1029,       592,
    64.123,       577,
   64.1432,       605,
   64.1634,       633,
   64.1836,       622,
   64.2037,       622,
   64.2239,       609,
   64.2441,       618,
   64.2642,       635,
   64.2844,       614,
   64.3046,       627,
   64.3247,       546,
   64.3449,       568,
   64.3651,       618,
   64.3852,       617,
   64.4054,       606,
   64.4256,       606,
   64.4457,       629,
   64.4659,       603,
   64.4861,       645,
   64.5062,       561,
   64.5264,       586,
   64.5466,       597,
   64.5668,       653,
   64.5869,       610,
   64.6071,       597,
   64.6273,       583,
   64.6474,       621,
   64.6676,       589,
   64.6878,       575,
   64.7079,       641,
   64.7281,       606,
   64.7483,       583,
   64.7684,       608,
   64.7886,       661,
   64.8088,       647,
   64.8289,       629,
   64.8491,       609,
   64.8693,       596,
   64.8894,       619,
   64.9096,       610,
   64.9298,       605,
     64.95,       611,
   64.9701,       657,
   64.9903,       642,
   65.0105,       606,
   65.0306,       636,
   65.0508,       613,
    65.071,       632,
   65.0911,       624,
   65.1113,       663,
   65.1315,       613,
   65.1516,       678,
   65.1718,       613,
    65.192,       619,
   65.2121,       622,
   65.2323,       613,
   65.2525,       611,
   65.2727,       644,
   65.2928,       625,
    65.313,       599,
   65.3332,       616,
   65.3533,       618,
   65.3735,       588,
   65.3937,       573,
   65.4138,       570,
    65.434,       604,
   65.4542,       620,
   65.4743,       625,
   65.4945,       639,
   65.5147,       619,
   65.5348,       554,
    65.555,       614,
   65.5752,       645,
   65.5953,       595,
   65.6155,       576,
   65.6357,       613,
   65.6559,       620,
    65.676,       614,
   65.6962,       603,
   65.7164,       631,
   65.7365,       598,
   65.7567,       625,
   65.7769,       617,
    65.797,       647,
   65.8172,       645,
   65.8374,       635,
   65.8575,       670,
   65.8777,       621,
   65.8979,       616,
    65.918,       604,
   65.9382,       640,
   65.9584,       614,
   65.9786,       602,
   65.9987,       637,
   66.0189,       635,
   66.0391,       651,
   66.0592,       621,
   66.0794,       644,
   66.0996,       638,
   66.1197,       606,
   66.1399,       642,
   66.1601,       636,
   66.1802,       629,
   66.2004,       600,
   66.2206,       586,
   66.2407,       611,
   66.2609,       593,
   66.2811,       600,
   66.3012,       622,
   66.3214,       588,
   66.3416,       628,
   66.3618,       612,
   66.3819,       567,
   66.4021,       622,
   66.4223,       662,
   66.4424,       624,
   66.4626,       596,
   66.4828,       637,
   66.5029,       591,
   66.5231,       590,
   66.5433,       660,
   66.5634,       590,
   66.5836,       606,
   66.6038,       597,
   66.6239,       605,
   66.6441,       572,
   66.6643,       610,
   66.6844,       623,
   66.7046,       622,
   66.7248,       576,
    66.745,       618,
   66.7651,       601,
   66.7853,       611,
   66.8055,       594,
   66.8256,       618,
   66.8458,       642,
    66.866,       593,
   66.8861,       624,
   66.9063,       648,
   66.9265,       585,
   66.9466,       635,
   66.9668,       595,
    66.987,       617,
   67.0071,       602,
   67.0273,       641,
   67.0475,       637,
   67.0677,       594,
   67.0878,       655,
    67.108,       590,
   67.1282,       588,
   67.1483,       580,
   67.1685,       593,
   67.1887,       631,
   67.2088,       619,
    67.229,       588,
   67.2492,       547,
   67.2693,       577,
   67.2895,       609,
   67.3097,       622,
   67.3298,       607,
     67.35,       613,
   67.3702,       594,
   67.3903,       583,
   67.4105,       584,
   67.4307,       597,
   67.4509,       565,
    67.471,       631,
   67.4912,       586,
   67.5114,       649,
   67.5315,       605,
   67.5517,       594,
   67.5719,       605,
    67.592,       562,
   67.6122,       626,
   67.6324,       591,
   67.6525,       580,
   67.6727,       597,
   67.6929,       654,
    67.713,       573,
   67.7332,       596,
   67.7534,       613,
   67.7735,       622,
   67.7937,       587,
   67.8139,       581,
   67.8341,       618,
   67.8542,       594,
   67.8744,       599,
   67.8946,       614,
   67.9147,       607,
   67.9349,       621,
   67.9551,       607,
   67.9752,       592,
   67.9954,       608,
   68.0156,       654,
   68.0357,       625,
   68.0559,       580,
   68.0761,       601,
   68.0962,       631,
   68.1164,       579,
   68.1366,       621,
   68.1568,       657,
   68.1769,       670,
   68.1971,       582,
   68.2173,       611,
   68.2374,       565,
   68.2576,       552,
   68.2778,       605,
   68.2979,       641,
   68.3181,       575,
   68.3383,       599,
   68.3584,       619,
   68.3786,       590,
   68.3988,       616,
   68.4189,       621,
   68.4391,       634,
   68.4593,       666,
   68.4794,       608,
   68.4996,       648,
   68.5198,       611,
     68.54,       622,
   68.5601,       589,
   68.5803,       645,
   68.6005,       622,
   68.6206,       625,
   68.6408,       640,
    68.661,       619,
   68.6811,       577,
   68.7013,       627,
   68.7215,       599,
   68.7416,       539,
   68.7618,       565,
    68.782,       617,
   68.8021,       581,
   68.8223,       628,
   68.8425,       651,
   68.8626,       578,
   68.8828,       618,
    68.903,       602,
   68.9232,       613,
   68.9433,       602,
   68.9635,       616,
   68.9837,       614,
   69.0038,       634,
    69.024,       581,
   69.0442,       604,
   69.0643,       604,
   69.0845,       587,
   69.1047,       626,
   69.1248,       605,
    69.145,       619,
   69.1652,       624,
   69.1853,       619,
   69.2055,       560,
   69.2257,       644,
   69.2459,       601,
    69.266,       616,
   69.2862,       597,
   69.3064,       633,
   69.3265,       594,
   69.3467,       627,
   69.3669,       594,
    69.387,       629,
   69.4072,       637,
   69.4274,       652,
   69.4475,       616,
   69.4677,       640,
   69.4879,       637,
    69.508,       599,
   69.5282,       598,
   69.5484,       664,
   69.5685,       599,
   69.5887,       621,
   69.6089,       641,
   69.6291,       614,
   69.6492,       618,
   69.6694,       622,
   69.6896,       588,
   69.7097,       579,
   69.7299,       583,
   69.7501,       616,
   69.7702,       583,
   69.7904,       601,
   69.8106,       654,
   69.8307,       631,
   69.8509,       647,
   69.8711,       599,
   69.8912,       616,
   69.9114,       594,
   69.9316,       620,
   69.9517,       604,
   69.9719,       608,
   69.9921,       616,
   70.0123,       596,
   70.0324,       576,
   70.0526,       616,
   70.0728,       596,
   70.0929,       633,
   70.1131,       610,
   70.1333,       644,
   70.1534,       630,
   70.1736,       629,
   70.1938,       593,
   70.2139,       647,
   70.2341,       628,
   70.2543,       593,
   70.2744,       614,
   70.2946,       635,
   70.3148,       591,
    70.335,       596,
   70.3551,       646,
   70.3753,       575,
   70.3955,       600,
   70.4156,       637,
   70.4358,       625,
    70.456,       618,
   70.4761,       599,
   70.4963,       609,
   70.5165,       634,
   70.5366,       596,
   70.5568,       610,
    70.577,       624,
   70.5971,       613,
   70.6173,       662,
   70.6375,       602,
   70.6576,       601,
   70.6778,       608,
    70.698,       640,
   70.7182,       584,
   70.7383,       626,
   70.7585,       612,
   70.7787,       604,
   70.7988,       617,
    70.819,       595,
   70.8392,       664,
   70.8593,       631,
   70.8795,       629,
   70.8997,       593,
   70.9198,       615,
     70.94,       582,
   70.9602,       609,
   70.9803,       584,
   71.0005,       589,
   71.0207,       624,
   71.0409,       580,
    71.061,       596,
   71.0812,       583,
   71.1014,       642,
   71.1215,       631,
   71.1417,       574,
   71.1619,       597,
    71.182,       591,
   71.2022,       588,
   71.2224,       556,
   71.2425,       598,
   71.2627,       652,
   71.2829,       607,
    71.303,       588,
   71.3232,       650,
   71.3434,       626,
   71.3635,       614,
   71.3837,       639,
   71.4039,       644,
   71.4241,       616,
   71.4442,       645,
   71.4644,       628,
   71.4846,       640,
   71.5047,       593,
   71.5249,       678,
   71.5451,       612,
   71.5652,       634,
   71.5854,       613,
   71.6056,       642,
   71.6257,       633,
   71.6459,       618,
   71.6661,       611,
   71.6862,       639,
   71.7064,       609,
   71.7266,       639,
   71.7467,       632,
   71.7669,       625,
   71.7871,       616,
   71.8073,       629,
   71.8274,       636,
   71.8476,       651,
   71.8678,       643,
   71.8879,       609,
   71.9081,       577,
   71.9283,       632,
   71.9484,       610,
   71.9686,       613,
   71.9888,       650,
   72.0089,       661,
   72.0291,       572,
   72.0493,       628,
   72.0694,       644,
   72.0896,       646,
   72.1098,       674,
     72.13,       675,
   72.1501,       612,
   72.1703,       614,
   72.1905,       657,
   72.2106,       619,
   72.2308,       650,
    72.251,       616,
   72.2711,       641,
   72.2913,       661,
   72.3115,       644,
   72.3316,       608,
   72.3518,       640,
    72.372,       632,
   72.3921,       652,
   72.4123,       629,
   72.4325,       659,
   72.4526,       589,
   72.4728,       617,
    72.493,       640,
   72.5132,       609,
   72.5333,       640,
   72.5535,       659,
   72.5737,       630,
   72.5938,       619,
    72.614,       642,
   72.6342,       638,
   72.6543,       659,
   72.6745,       580,
   72.6947,       652,
   72.7148,       608,
    72.735,       610,
   72.7552,       596,
   72.7753,       618,
   72.7955,       635,
   72.8157,       640,
   72.8358,       627,
    72.856,       666,
   72.8762,       648,
   72.8964,       624,
   72.9165,       619,
   72.9367,       611,
   72.9569,       643,
    72.977,       665,
   72.9972,       621,
   73.0174,       625,
   73.0375,       636,
   73.0577,       628,
   73.0779,       638,
    73.098,       640,
   73.1182,       641,
   73.1384,       593,
   73.1585,       617,
   73.1787,       670,
   73.1989,       606,
   73.2191,       668,
   73.2392,       587,
   73.2594,       683,
   73.2796,       647,
   73.2997,       678,
   73.3199,       617,
   73.3401,       652,
   73.3602,       613,
   73.3804,       652,
   73.4006,       715,
   73.4207,       669,
   73.4409,       631,
   73.4611,       668,
   73.4812,       653,
   73.5014,       634,
   73.5216,       654,
   73.5417,       695,
   73.5619,       675,
   73.5821,       686,
   73.6023,       665,
   73.6224,       674,
   73.6426,       729,
   73.6628,       717,
   73.6829,       732,
   73.7031,       709,
   73.7233,       773,
   73.7434,       707,
   73.7636,       783,
   73.7838,       858,
   73.8039,       897,
   73.8241,       874,
   73.8443,       938,
   73.8644,       903,
   73.8846,       865,
   73.9048,       866,
   73.9249,       963,
   73.9451,       969,
   73.9653,       992,
   73.9855,      1102,
   74.0056,      1160,
   74.0258,      1335,
    74.046,      1565,
   74.0661,      2005,
   74.0863,      2640,
   74.1065,      3966,
   74.1266,      6701,
   74.1468,     10435,
    74.167,     12819,
   74.1871,     11280,
   74.2073,      7546,
   74.2275,      4520,
   74.2476,      3104,
   74.2678,      2421,
    74.288,      2142,
   74.3082,      2356,
   74.3283,      3166,
   74.3485,      4575,
   74.3687,      6367,
   74.3888,      6686,
    74.409,      5421,
   74.4292,      3670,
   74.4493,      2497,
   74.4695,      1706,
   74.4897,      1372,
   74.5098,      1161,
     74.53,      1048,
   74.5502,       977,
   74.5703,       895,
   74.5905,       904,
   74.6107,       885,
   74.6308,       812,
    74.651,       815,
   74.6712,       772,
   74.6914,       765,
   74.7115,       727,
   74.7317,       717,
   74.7519,       769,
    74.772,       704,
   74.7922,       682,
   74.8124,       697,
   74.8325,       686,
   74.8527,       680,
   74.8729,       711,
    74.893,       703,
   74.9132,       727,
   74.9334,       680,
   74.9535,       659,
   74.9737,       601,
   74.9939,       659,
    75.014,       662,
   75.0342,       615,
   75.0544,       646,
   75.0746,       682,
   75.0947,       644,
   75.1149,       664,
   75.1351,       616,
   75.1552,       636,
   75.1754,       667,
   75.1956,       625,
   75.2157,       657,
   75.2359,       621,
   75.2561,       632,
   75.2762,       663,
   75.2964,       659,
   75.3166,       648,
   75.3367,       667,
   75.3569,       673,
   75.3771,       643,
   75.3973,       629,
   75.4174,       611,
   75.4376,       652,
   75.4578,       628,
   75.4779,       655,
   75.4981,       609,
   75.5183,       623,
   75.5384,       641,
   75.5586,       656,
   75.5788,       667,
   75.5989,       635,
   75.6191,       665,
   75.6393,       642,
   75.6594,       600,
   75.6796,       628,
   75.6998,       598,
   75.7199,       619,
   75.7401,       621,
   75.7603,       658,
   75.7805,       622,
   75.8006,       618,
   75.8208,       644,
    75.841,       650,
   75.8611,       616,
   75.8813,       661,
   75.9015,       655,
   75.9216,       649,
   75.9418,       676,
    75.962,       635,
   75.9821,       626,
   76.0023,       625,
   76.0225,       640,
   76.0426,       627,
   76.0628,       678,
    76.083,       580,
   76.1032,       648,
   76.1233,       661,
   76.1435,       626,
   76.1637,       607,
   76.1838,       631,
    76.204,       579,
   76.2242,       675,
   76.2443,       648,
   76.2645,       619,
   76.2847,       642,
   76.3048,       643,
    76.325,       624,
   76.3452,       601,
   76.3653,       618,
   76.3855,       630,
   76.4057,       649,
   76.4258,       609,
    76.446,       585,
   76.4662,       626,
   76.4864,       620,
   76.5065,       615,
   76.5267,       597,
   76.5469,       604,
    76.567,       615,
   76.5872,       575,
   76.6074,       578,
   76.6275,       631,
   76.6477,       654,
   76.6679,       610,
    76.688,       610,
   76.7082,       576,
   76.7284,       631,
   76.7485,       619,
   76.7687,       646,
   76.7889,       615,
    76.809,       623,
   76.8292,       584,
   76.8494,       598,
   76.8696,       661,
   76.8897,       639,
   76.9099,       649,
   76.9301,       619,
   76.9502,       615,
   76.9704,       602,
   76.9906,       627,
   77.0107,       631,
   77.0309,       603,
   77.0511,       619,
   77.0712,       583,
   77.0914,       696,
   77.1116,       595,
   77.1317,       602,
   77.1519,       613,
   77.1721,       625,
   77.1923,       591,
   77.2124,       627,
   77.2326,       612,
   77.2528,       558,
   77.2729,       598,
   77.2931,       638,
   77.3133,       627,
   77.3334,       610,
   77.3536,       614,
   77.3738,       616,
   77.3939,       599,
   77.4141,       641,
   77.4343,       580,
   77.4544,       598,
   77.4746,       601,
   77.4948,       627,
   77.5149,       623,
   77.5351,       568,
   77.5553,       609,
   77.5755,       588,
   77.5956,       606,
   77.6158,       610,
    77.636,       625,
   77.6561,       627,
   77.6763,       616,
   77.6965,       639,
   77.7166,       614,
   77.7368,       609,
    77.757,       654,
   77.7771,       642,
   77.7973,       610,
   77.8175,       592,
   77.8376,       635,
   77.8578,       659,
    77.878,       605,
   77.8981,       610,
   77.9183,       620,
   77.9385,       633,
   77.9587,       636,
   77.9788,       617,
    77.999,       667,
