;RAW4.00
[RawHeader]
Date=11/26/2025
EstimatedTotalTime=426.6
FurtherDQLReading=0
HardwareIndicator=65519
MeasuredTotalTime=4.29534
MeasurementFlag=1
NumberOfMeasuredRanges=1
NumberOfRanges=1
Time=09:29:13

[VarInfo]
Type=USER
Flags=0
Value=Lab Manager

[VarInfo]
Type=SAMPLEID
Flags=0
Value=Commander Sample ID

[VarInfo]
Type=COMMENT
Flags=0
Value=

[VarInfo]
Type=UTF
Flags=0
Value=

[VarInfo]
Type=CREATOR
Flags=0
Value=V5Converter

[VarInfo]
Type=CREATOR_VERSION
Flags=0
Value=4.4.16.0

[HardwareConfiguration]
AbsorptionFactor=9999
ActivateAbsorber=0
Alpha1=1.5406
Alpha2=1.54439
AlphaAverage=1.54184
AlphaRatio=0.5
Analyzer=0
Anode=Cu
AntiScatteringSlit=9999
BeamOpticsFlags=0
Beta=1.39222
BetaRelativeIntensity=0
DeactivateAbsorber=0
DetectorSlit=9999
DivergenceSlit=9999
GoniometerControl=0
GoniometerDiameter=282
GoniometerModel=256
GoniometerStage=7
Monochromator=0
NearSampleSlit=9999
PrimarySollerSlit=9999
SampleChanger=0
SecondSollerSlit=9999
SynchronousAxis=0
ThinFilmAttachment=9999
WaveUnit=A

[RangeHeader]
ActuallyUsedLambda=1.54184
AdditionalDetectorMask=257
DataRecordLength=4
DelayTime=0
DisplayPlaneNumber=0
EstimatedScanTime=427
ExtraParametersMask=0
GeneratorCurrent=10
GeneratorVoltage=30
Increment=0.0201685
Increment3=0
NumberOfCompletedData=1885
NumberOfCounts=1
NumberOfDetectors=0
NumberOfDrives=3
NumberOfEncoderDrives=0
NumberOfMeasuredData=1885
NumberOfVaryingParameters=0
RangeStartTime=0
RotationSpeed=0
ScanMode=1
ScanType=Locked Coupled
SimulatedMeasConditions=0
SlitChangerIn=0
SmootingWidth=0
Start=40.0015
Steps=1885
SynchronousRotation=0
Time=33

[VarInfo]
Type=PSD_DISCRIM
Flags=0
Value=0.11;0.5

[VarInfo]
Type=OPTICS_V5
Flags=0
Value=H4sIAAAAAAAEAO1d63KjOhJ+Fda/zqmtBIPtXKaITzm2J+OaOHbFTnKmtrZcBORYZzC4AOey//d99hl2X2x1QViIS8C3JBN+TCaodWm6+2vUUkfS/nieW9IjcD3o2GcV5bBakYBtOCa0H84qS396oBxV/mhqF44NnTnwgdt25gvHBrbf0X1dQq1t78uzB88qM99ffJHlp6enw6faoeM+yGq1qsh/9i9HxgzM9QNoe75uG6AStjJfb1WRbqEH7y1wpc/BWWXFR0joAM9w4cInL/Bj4UHLsSW+3oXrLBc9NBZ6t3Pgojcb3P8FDH+o+7OzitwBj9AAMt+CrxUfl1Lblu55QRehTORzoM8XqLDt2L4ObeBy/coBc6yHluEvdYtxoR6o1ePT02O5h8TkLue4tzhrTW2EZGjqqBswQr3oFvyXjl+9OdUtD2hyGln7c259hcAyrwHqHhq4EDFpA/KbJ8lNjfKD1ToCFipvdm00JDA1OUbR6Btwou9Ab2HpL824AjQ5tXK8m+bF4OrHhPzodEft64TGrBVWDOsoPhpP1bBWhrxWvISy1r0hIUP+4r8skMLHrm78xG8sGODQhXPdfSHkZBMMakgD9GxISBvSeHkPOIFIQeOidilHx44baRI9r5mSRmyEDSxUYBJZ3blu/xy4JnCvAfYzAL0wsdX3b8s5NVnMwIfj6+8T9KPV/l7IxHm5Jhp5z0OvBh9BE+kGCS98DAk920dCZMIVSikeHA9SJulgmhwp1bAq2ZMXfZT4B2LSAxc+QFu3ogSlwl6OWi7Ssb/0moPwnSLFGmsYPPedJdIj0qJQrgWE0MJ5JCOdEXICmjFtjmnJUA7J0tRxpRHQLUBtYA3AytxYcejGiMm4JZa46kmmLG0LrhEWBa3xcus++8A2MZDfDYZpCWdMkQKtj5nwHfcltGVFk+OFGseMJxH2qHoYWND7cnJosmJN5ku1uCnh1+H65qyTKx3Y545jAR1NEG5s6BPpdiDSG56bXcI59IlYwiKvWdVk7knrgKm+tPxb3VoCboigVyQ96CPXTshnFewlKri/oQta5l9LD8GnYEuZYx67mbHTJoqe6ZblPK0cjVCOarZnwPgJzFUVVqC1ESPOHKsWvx33pNH5Zl7erhEyxkg2xVq1lr7TdoHug6HrLIDrvzAWEyiR9/eIRfdMhLKr5fweuE21rslCEdaQRS08UPF//xMyUSUc9B0TNG8Quqbos4xMnTwz90Y+PzEHluy7tuWt5HgP/ND5vNXOHBXjLvaN2aNbYuh5A79Evm3IJvErCL6JJ23LP418rD3OPSHRTOHDEjnla/gw85sIdabECnU0BoKwUKWYS+vrz5fAfvBnTbXRwKJhj2nOjrJISkNktZevObqMVm/q5DL4SnFwGS02cm5pFninPwKqkpa1mOmKYIUieVuWOJh2nCVqyWzxf//ehzWm2Nxw9uJBQ7dIeQJnTA/KYaNePXrNFtfo7ca2MPfItOjcf/WMZelYS+paugfVBtErK9H60Ibz5bx5oBwenx4fndaUWv3kSK0pjePu32vVE4S4oAZGIvklvWZQ4W0Rs4b0UpC0Rk/7QJiajTD10yOsXjvdJsRYdyXGNhLfFkDGuto1yh6Bqz+IoV6M/ulxppzUt4kz1l2Js43EtwWcsa52jLNz4OupIMPET46w2qmqqttD2Kq7EmEbiW9jhK262jHCrvGaRirECHVXGHuvCFutth02NsJWrKMSVWsKbh08xTrZCZK+OsbSG7gQ2D5ZHRSgJJK3tspG1g4H057tH9XfH6CibEVXr/OjKbkXhfRCBYDfqOeDOWLs0nmABl3VvJn0rm5bl73OpP2tN9TkFYkJfAye/WbPftQtiMQzg4uVjCJaIvW07+CFjI1lEf6uyTEWsnm67F2lsnIJbSARW0kbWtlk6OEgY+yhA20/e3B1k8GZLoaD0auqCHeKD6S58wgk35HmwJjpNrYKCTmTxd/SeKxl8/ienF2WXefzdFk9bOTm6N5Lz546UqiqhAVciZbr3FOQY3BWIVUkVBrdJr+ZtC6H31rRcrGRhEeyyEjkXXKxo0bYURPZUVPYUbPYUQuzEywL8PxEyoQBQloib5PW7UUWe0HrokySmCrg8D78PeybkkWGzrvjVjIvuH4+FiIbUQEDqBXeyxN46LJSkY3uZbffvRqnSMV2TCAFbaXVSDlkQmfBvNq4EkHsASVZZdetcW+QpTTSOp+8YlOLgL9pYnk4ToQicvl10J4MrpMZJONJkeZyfMe6Ed+xvgA2skTfcYU8TFacvPmcsQFLZ8dr7r82tXQiP3O7dSw/voYXlO4q5vl5u6WEjcypLxqFfRNqVSHyCL4FKaFHctihVBMCjFp1f7FErbF+MBEXRsEvZLo55TW19tJ1sT+LmlpQuitTm7f2YWpolHD6sQ1TaySFsh/E0uKy2LulDZ0nkgHOmxQp25WV3aUEnW+xcHMnRJr5lluqhymm+EkWW+4491hde7Ul3ssWbV9+7YtfJA0UTQyNGXBfyVbbPA8ud74bklUw60j9YgWfilQ/I4dzraYmBmuZ2QhiKJW9qxqLdLI3h6IxR/YytzAXT1vD42MIIXVJnC4nR8cylyaJ7OZRhxZeJcCPHu2eWH2ZQFkmUJYJlGUCZZlA+fE2xcsEyvezJV4mUP6aCCsTKN8TxsoEyl8VZ2UC5XvCWZlA+ashrEygfE8IKxMoywTKMoGyTKAsEyjLBMoygbJMoCwTKMsEyjKBskygLBMoywTKMoGyTKAsEyjLBMoygbJMoHzr+KNMoCwTKD9tAiXLkUS/iumT7KzT+Cmg4tm7GScqd+cL/4UkG4arGcVOT+72h4PRhP4scnoyGTg0xcTzk2U+BzLzcGMl7XBjde+HGw8WbefceR5MR45lATfhiGNKyDjkmKsg/WbotmTQQ8ElNJZEifQE7N/XgX9k+LhXSSBnuYaE6hunwkb7FPSZfOxxRGTIPPKL8PePe2KymphYK0bAR+scevtxXAin6Q2diJrmRGpv50S+wmdgEkNlcw/RmVjQz3IliCz1U2CAaRv4kdXICV5EJGb6ELHy5h6E61FQZYr/YA2o98gntQ/sOmq5XMfxeudlE7OmVzSsTJpYMhZe0hcRy1SR/jGf/zPDjH/DR/7fA2QfErQ9hAVgol98R9I5hWWaMq5mhBds4KeJUp0oaQYcIb5mwIVtN52ZmPP5qH/5US30lx930PRnYm4HLtvZktP8/WxBxzgL44DNsuvjPeVdZqh+7nWGuODWWWeI97KTtI5vABumgB1a+LnBszXslNBZz+i3gpzt3wSirjOzGenzhQXuZgBYY/QC/KUgIkkjH65UJ0ChmfamMj+F+lCxGJtFbxiJ1dIisfpGkRjhMR6HvT9h3thLD5hkeHHgLInKwm1g17oJl16CldWVYB+fXrg3mE494KdZfesZevz3Iay2B1ceYybnbh1ywVU1LSlVPTypn6qNRkNN8LvHjcOTRv24dqQqvK8VhNAM7mETbitc+w7DEUCRgJl9i2FYh7v9roNCXwNnMmzhLkORh4SYKLFGsfsMwz42ifVFRj70nYaF9FrM/4zwzYaj4jcbRuW787sNw+F2cbvhyRss3uHlOks3wMyxzMQtgMsX+xm8pBxzcfnj6s/ujy654bCjSsOZ7olX4OYEsRyOEwezQMpa3mDWKOO8X3k4Wj2jProvYAvX6KYzLmrzl7v28CTPUlxNiU9Yi8wL0ecUu0XdWrmWfniNJk2pxn6HJHazGl4xZ9PpjyfkXwFHw4ba6R6gstmscZebgP09bgIKCIswkLYN2N/zNmAmj6JSs3YC+59rJ1Cp53Ii1c+wFVhGSkUjpbRAqXF4dHrSUJRqPWmBqqEcHldP68dqfQeB0sontAHGieA9hcKI4+SmzLSadMAw70kjnLfkkW8dVkPLMIDnOS4E3hoRE+Mi7j2jlLwRUvyl1/ekrIcPHRqtqcpiLudicNWekB9FHA7lZ+eh0Ri4qHQnkdHp3mdFwxkkShPAfO0EGXBRYgTUqKlErdE1Wb0CGJXZGHSdNqGDKCsJ1TJnP6vqMuJUZpxuDuAUxgVFpsREEgUYMFu+rxszPNBZ5WDPRwluc5pzmitr4SQ+y+l5TBQhKMMCjfMcZLfIWj48ALPjYkzSv8ZE3eHvWs9sIu2S3oNHTCEVRwtgwGnwt6KsUpyC4BLvvcgEK46DYs5u+K03mpAfRZxdFKHbnGBVi0yvQisOP5lEYfRDEPwf22IqXU7pckqXI7qcECvsd+8VLsZPznhGTjB6jZVIzZz8ZA+dc9yig6ZEJvFifFQxXo8YAd9H0PIkfi6GHAXNPKxILbzB7vVR6AbplI5NtLGOuVT/5i2e1Rn4EFu+VFtBkewhB6uqmiyUa3yqI/WAkWUTj/6JxSqYYK6D6Pv/u9RXv2COAAA=

[PSD]
ActualTwoTheta=9999
FirstUsedChannel=0
FixedPSD=0
PSDOpening=4.99171
PSDType=5

[Drive]
DriveFlags=1
DriveName=2Theta
DriveNumber=2
DriveOffset=0
OffsetIndex=0
OscillationAmplitude=0
OscillationSpeed=0
StartPosition=40.0015

[Drive]
DriveFlags=1
DriveName=Theta
DriveNumber=1
DriveOffset=0
OffsetIndex=0
OscillationAmplitude=0
OscillationSpeed=0
StartPosition=20.0007

[Drive]
DriveFlags=1
DriveName=Phi
DriveNumber=3
DriveOffset=0
OffsetIndex=0
OscillationAmplitude=0
OscillationSpeed=0
StartPosition=0

[Data]
     Angle,       PSD,
   40.0015,       660,
   40.0217,       624,
   40.0418,       652,
    40.062,       583,
   40.0822,       650,
   40.1023,       651,
   40.1225,       622,
   40.1427,       646,
   40.1628,       598,
    40.183,       590,
   40.2032,       639,
   40.2233,       676,
   40.2435,       609,
   40.2637,       639,
   40.2838,       632,
    40.304,       677,
   40.3242,       656,
   40.3444,       655,
   40.3645,       614,
   40.3847,       663,
   40.4049,       642,
    40.425,       604,
   40.4452,       611,
   40.4654,       611,
   40.4855,       625,
   40.5057,       627,
   40.5259,       687,
    40.546,       611,
   40.5662,       588,
   40.5864,       635,
   40.6065,       633,
   40.6267,       650,
   40.6469,       660,
   40.6671,       658,
   40.6872,       623,
   40.7074,       616,
   40.7276,       601,
   40.7477,       633,
   40.7679,       674,
   40.7881,       687,
   40.8082,       621,
   40.8284,       668,
   40.8486,       628,
   40.8687,       660,
   40.8889,       608,
   40.9091,       612,
   40.9292,       639,
   40.9494,       601,
   40.9696,       634,
   40.9897,       634,
   41.0099,       628,
   41.0301,       638,
   41.0503,       562,
   41.0704,       660,
   41.0906,       635,
   41.1108,       587,
   41.1309,       592,
   41.1511,       611,
   41.1713,       677,
   41.1914,       602,
   41.2116,       655,
   41.2318,       656,
   41.2519,       626,
   41.2721,       618,
   41.2923,       662,
   41.3124,       659,
   41.3326,       607,
   41.3528,       677,
   41.3729,       637,
   41.3931,       577,
   41.4133,       685,
   41.4335,       612,
   41.4536,       608,
   41.4738,       686,
    41.494,       655,
   41.5141,       595,
   41.5343,       638,
   41.5545,       659,
   41.5746,       623,
   41.5948,       627,
    41.615,       647,
   41.6351,       682,
   41.6553,       659,
   41.6755,       667,
   41.6956,       658,
   41.7158,       709,
    41.736,       692,
   41.7562,       685,
   41.7763,       728,
   41.7965,       735,
   41.8167,       775,
   41.8368,       744,
    41.857,       770,
   41.8772,       747,
   41.8973,       766,
   41.9175,       749,
   41.9377,       747,
   41.9578,       782,
    41.978,       749,
   41.9982,       761,
   42.0183,       819,
   42.0385,       793,
   42.0587,       750,
   42.0788,       823,
    42.099,       783,
   42.1192,       835,
   42.1394,       776,
   42.1595,       769,
   42.1797,       748,
   42.1999,       762,
     42.22,       791,
   42.2402,       778,
   42.2604,       783,
   42.2805,       786,
   42.3007,       744,
   42.3209,       743,
    42.341,       794,
   42.3612,       782,
   42.3814,       737,
   42.4015,       784,
   42.4217,       794,
   42.4419,       805,
    42.462,       734,
   42.4822,       789,
   42.5024,       725,
   42.5226,       782,
   42.5427,       870,
   42.5629,       722,
   42.5831,       836,
   42.6032,       808,
   42.6234,       839,
   42.6436,       780,
   42.6637,       828,
   42.6839,       802,
   42.7041,       884,
   42.7242,       887,
   42.7444,       852,
   42.7646,       872,
   42.7847,       867,
   42.8049,       921,
   42.8251,       953,
   42.8453,       976,
   42.8654,      1005,
   42.8856,      1102,
   42.9058,      1146,
   42.9259,      1195,
   42.9461,      1238,
   42.9663,      1225,
   42.9864,      1238,
   43.0066,      1330,
   43.0268,      1473,
   43.0469,      1528,
   43.0671,      1680,
   43.0873,      1878,
   43.1074,      2075,
   43.1276,      2211,
   43.1478,      2315,
   43.1679,      2542,
   43.1881,      2887,
   43.2083,      3768,
   43.2285,      5303,
   43.2486,      9750,
   43.2688,     22110,
    43.289,     47695,
   43.3091,     64961,
   43.3293,     45255,
   43.3495,     19889,
   43.3696,     13246,
   43.3898,     18722,
     43.41,     30424,
   43.4301,     31638,
   43.4503,     18021,
   43.4705,      7790,
   43.4906,      4321,
   43.5108,      3014,
    43.531,      2555,
   43.5511,      2231,
   43.5713,      1980,
   43.5915,      1768,
   43.6117,      1667,
   43.6318,      1522,
    43.652,      1427,
   43.6722,      1279,
   43.6923,      1254,
   43.7125,      1235,
   43.7327,      1100,
   43.7528,      1038,
    43.773,      1021,
   43.7932,       955,
   43.8133,       868,
   43.8335,       923,
   43.8537,       911,
   43.8738,       857,
    43.894,       807,
   43.9142,       866,
   43.9344,       817,
   43.9545,       806,
   43.9747,       858,
   43.9949,       852,
    44.015,       823,
   44.0352,       763,
   44.0554,       831,
   44.0755,       835,
   44.0957,       821,
   44.1159,       776,
    44.136,       771,
   44.1562,       774,
   44.1764,       727,
   44.1965,       777,
   44.2167,       764,
   44.2369,       830,
    44.257,       778,
   44.2772,       791,
   44.2974,       728,
   44.3176,       715,
   44.3377,       744,
   44.3579,       752,
   44.3781,       792,
   44.3982,       764,
   44.4184,       759,
   44.4386,       747,
   44.4587,       766,
   44.4789,       727,
   44.4991,       751,
   44.5192,       788,
   44.5394,       755,
   44.5596,       722,
   44.5797,       752,
   44.5999,       733,
   44.6201,       720,
   44.6402,       753,
   44.6604,       738,
   44.6806,       730,
   44.7008,       783,
   44.7209,       717,
   44.7411,       746,
   44.7613,       765,
   44.7814,       741,
   44.8016,       740,
   44.8218,       731,
   44.8419,       727,
   44.8621,       701,
   44.8823,       706,
   44.9024,       701,
   44.9226,       713,
   44.9428,       715,
   44.9629,       744,
   44.9831,       741,
   45.0033,       683,
   45.0235,       707,
   45.0436,       689,
   45.0638,       694,
    45.084,       747,
   45.1041,       729,
   45.1243,       675,
   45.1445,       658,
   45.1646,       754,
   45.1848,       694,
    45.205,       705,
   45.2251,       693,
   45.2453,       716,
   45.2655,       709,
   45.2856,       762,
   45.3058,       782,
    45.326,       770,
   45.3461,       742,
   45.3663,       692,
   45.3865,       762,
   45.4067,       727,
   45.4268,       739,
    45.447,       763,
   45.4672,       687,
   45.4873,       700,
   45.5075,       649,
   45.5277,       749,
   45.5478,       701,
    45.568,       677,
   45.5882,       736,
   45.6083,       699,
   45.6285,       647,
   45.6487,       744,
   45.6688,       717,
    45.689,       737,
   45.7092,       702,
   45.7294,       698,
   45.7495,       688,
   45.7697,       692,
   45.7899,       716,
     45.81,       736,
   45.8302,       724,
   45.8504,       697,
   45.8705,       637,
   45.8907,       711,
   45.9109,       702,
    45.931,       714,
   45.9512,       698,
   45.9714,       700,
   45.9915,       696,
   46.0117,       716,
   46.0319,       715,
    46.052,       678,
   46.0722,       750,
   46.0924,       659,
   46.1126,       697,
   46.1327,       658,
   46.1529,       679,
   46.1731,       687,
   46.1932,       686,
   46.2134,       695,
   46.2336,       652,
   46.2537,       707,
   46.2739,       668,
   46.2941,       658,
   46.3142,       659,
   46.3344,       682,
   46.3546,       708,
   46.3747,       690,
   46.3949,       665,
   46.4151,       695,
   46.4352,       719,
   46.4554,       709,
   46.4756,       673,
   46.4958,       733,
   46.5159,       720,
   46.5361,       658,
   46.5563,       680,
   46.5764,       724,
   46.5966,       684,
   46.6168,       697,
   46.6369,       693,
   46.6571,       626,
   46.6773,       657,
   46.6974,       676,
   46.7176,       707,
   46.7378,       682,
   46.7579,       695,
   46.7781,       653,
   46.7983,       683,
   46.8185,       636,
   46.8386,       689,
   46.8588,       665,
    46.879,       687,
   46.8991,       702,
   46.9193,       682,
   46.9395,       703,
   46.9596,       672,
   46.9798,       636,
        47,       670,
   47.0201,       650,
   47.0403,       679,
   47.0605,       706,
   47.0806,       679,
   47.1008,       679,
    47.121,       674,
   47.1411,       679,
   47.1613,       687,
   47.1815,       631,
   47.2017,       665,
   47.2218,       678,
    47.242,       662,
   47.2622,       646,
   47.2823,       678,
   47.3025,       696,
   47.3227,       666,
   47.3428,       676,
    47.363,       718,
   47.3832,       630,
   47.4033,       657,
   47.4235,       681,
   47.4437,       681,
   47.4638,       684,
    47.484,       706,
   47.5042,       640,
   47.5243,       620,
   47.5445,       673,
   47.5647,       665,
   47.5849,       690,
    47.605,       669,
   47.6252,       665,
   47.6454,       713,
   47.6655,       679,
   47.6857,       620,
   47.7059,       685,
    47.726,       659,
   47.7462,       647,
   47.7664,       645,
   47.7865,       678,
   47.8067,       676,
   47.8269,       683,
    47.847,       638,
   47.8672,       667,
   47.8874,       653,
   47.9076,       687,
   47.9277,       658,
   47.9479,       632,
   47.9681,       663,
   47.9882,       669,
   48.0084,       656,
   48.0286,       684,
   48.0487,       667,
   48.0689,       683,
   48.0891,       655,
   48.1092,       721,
   48.1294,       696,
   48.1496,       698,
   48.1697,       658,
   48.1899,       691,
   48.2101,       681,
   48.2302,       648,
   48.2504,       706,
   48.2706,       654,
   48.2908,       674,
   48.3109,       667,
   48.3311,       627,
   48.3513,       681,
   48.3714,       701,
   48.3916,       679,
   48.4118,       682,
   48.4319,       677,
   48.4521,       702,
   48.4723,       669,
   48.4924,       662,
   48.5126,       691,
   48.5328,       662,
   48.5529,       674,
   48.5731,       657,
   48.5933,       683,
   48.6134,       685,
   48.6336,       695,
   48.6538,       717,
    48.674,       670,
   48.6941,       660,
   48.7143,       687,
   48.7345,       694,
   48.7546,       676,
   48.7748,       685,
    48.795,       710,
   48.8151,       674,
   48.8353,       684,
   48.8555,       641,
   48.8756,       642,
   48.8958,       721,
    48.916,       680,
   48.9361,       676,
   48.9563,       671,
   48.9765,       682,
   48.9967,       710,
   49.0168,       719,
    49.037,       711,
   49.0572,       744,
   49.0773,       694,
   49.0975,       718,
   49.1177,       655,
   49.1378,       608,
    49.158,       703,
   49.1782,       720,
   49.1983,       693,
   49.2185,       719,
   49.2387,       686,
   49.2588,       681,
    49.279,       686,
   49.2992,       705,
   49.3193,       669,
   49.3395,       719,
   49.3597,       706,
   49.3799,       702,
      49.4,       682,
   49.4202,       705,
   49.4404,       685,
   49.4605,       679,
   49.4807,       707,
   49.5009,       733,
    49.521,       726,
   49.5412,       675,
   49.5614,       710,
   49.5815,       676,
   49.6017,       711,
   49.6219,       691,
    49.642,       691,
   49.6622,       733,
   49.6824,       684,
   49.7025,       715,
   49.7227,       705,
   49.7429,       690,
   49.7631,       686,
   49.7832,       733,
   49.8034,       723,
   49.8236,       698,
   49.8437,       765,
   49.8639,       730,
   49.8841,       713,
   49.9042,       718,
   49.9244,       736,
   49.9446,       697,
   49.9647,       774,
   49.9849,       717,
   50.0051,       790,
   50.0252,       836,
   50.0454,       808,
   50.0656,       870,
   50.0858,       830,
   50.1059,       911,
   50.1261,       867,
   50.1463,       965,
   50.1664,       975,
   50.1866,      1008,
   50.2068,      1088,
   50.2269,      1200,
   50.2471,      1227,
   50.2673,      1253,
   50.2874,      1336,
   50.3076,      1503,
   50.3278,      1871,
   50.3479,      2379,
   50.3681,      3232,
   50.3883,      5269,
   50.4084,      8728,
   50.4286,     12535,
   50.4488,     12905,
    50.469,      9528,
   50.4891,      6152,
   50.5093,      4709,
   50.5295,      4869,
   50.5496,      6050,
   50.5698,      7414,
     50.59,      6589,
   50.6101,      4648,
   50.6303,      2852,
   50.6505,      2114,
   50.6706,      1593,
   50.6908,      1401,
    50.711,      1243,
   50.7311,      1096,
   50.7513,      1067,
   50.7715,       995,
   50.7917,       980,
   50.8118,       960,
    50.832,       898,
   50.8522,       848,
   50.8723,       850,
   50.8925,       801,
   50.9127,       805,
   50.9328,       767,
    50.953,       746,
   50.9732,       726,
   50.9933,       699,
   51.0135,       777,
   51.0337,       686,
   51.0538,       752,
    51.074,       730,
   51.0942,       734,
   51.1143,       695,
   51.1345,       718,
   51.1547,       681,
   51.1749,       700,
    51.195,       667,
   51.2152,       659,
   51.2354,       739,
   51.2555,       687,
   51.2757,       675,
   51.2959,       672,
    51.316,       684,
   51.3362,       666,
   51.3564,       673,
   51.3765,       687,
   51.3967,       719,
   51.4169,       705,
    51.437,       698,
   51.4572,       644,
   51.4774,       664,
   51.4975,       672,
   51.5177,       673,
   51.5379,       647,
   51.5581,       661,
   51.5782,       708,
   51.5984,       678,
   51.6186,       653,
   51.6387,       640,
   51.6589,       640,
   51.6791,       658,
   51.6992,       696,
   51.7194,       612,
   51.7396,       691,
   51.7597,       660,
   51.7799,       666,
   51.8001,       652,
   51.8202,       642,
   51.8404,       638,
   51.8606,       638,
   51.8808,       654,
   51.9009,       651,
   51.9211,       667,
   51.9413,       643,
   51.9614,       629,
   51.9816,       635,
   52.0018,       661,
   52.0219,       651,
   52.0421,       658,
   52.0623,       684,
   52.0824,       659,
   52.1026,       682,
   52.1228,       707,
   52.1429,       698,
   52.1631,       685,
   52.1833,       680,
   52.2034,       705,
   52.2236,       646,
   52.2438,       697,
    52.264,       637,
   52.2841,       615,
   52.3043,       641,
   52.3245,       650,
   52.3446,       667,
   52.3648,       647,
    52.385,       675,
   52.4051,       681,
   52.4253,       677,
   52.4455,       626,
   52.4656,       646,
   52.4858,       636,
    52.506,       653,
   52.5261,       695,
   52.5463,       690,
   52.5665,       682,
   52.5866,       650,
   52.6068,       672,
    52.627,       673,
   52.6472,       639,
   52.6673,       627,
   52.6875,       660,
   52.7077,       614,
   52.7278,       643,
    52.748,       635,
   52.7682,       632,
   52.7883,       625,
   52.8085,       621,
   52.8287,       686,
   52.8488,       654,
    52.869,       670,
   52.8892,       683,
   52.9093,       636,
   52.9295,       661,
   52.9497,       631,
   52.9699,       646,
     52.99,       650,
   53.0102,       661,
   53.0304,       652,
   53.0505,       651,
   53.0707,       610,
   53.0909,       667,
    53.111,       640,
   53.1312,       663,
   53.1514,       668,
   53.1715,       676,
   53.1917,       649,
   53.2119,       655,
    53.232,       659,
   53.2522,       638,
   53.2724,       697,
   53.2925,       641,
   53.3127,       627,
   53.3329,       635,
   53.3531,       647,
   53.3732,       647,
   53.3934,       672,
   53.4136,       651,
   53.4337,       637,
   53.4539,       641,
   53.4741,       648,
   53.4942,       627,
   53.5144,       643,
   53.5346,       658,
   53.5547,       670,
   53.5749,       647,
   53.5951,       684,
   53.6152,       599,
   53.6354,       640,
   53.6556,       598,
   53.6757,       620,
   53.6959,       643,
   53.7161,       606,
   53.7363,       629,
   53.7564,       614,
   53.7766,       648,
   53.7968,       641,
   53.8169,       633,
   53.8371,       642,
   53.8573,       626,
   53.8774,       683,
   53.8976,       656,
   53.9178,       619,
   53.9379,       679,
   53.9581,       664,
   53.9783,       621,
   53.9984,       660,
   54.0186,       657,
   54.0388,       658,
    54.059,       661,
   54.0791,       645,
   54.0993,       654,
   54.1195,       658,
   54.1396,       621,
   54.1598,       646,
     54.18,       666,
   54.2001,       605,
   54.2203,       673,
   54.2405,       647,
   54.2606,       625,
   54.2808,       606,
    54.301,       651,
   54.3211,       662,
   54.3413,       656,
   54.3615,       643,
   54.3816,       664,
   54.4018,       665,
    54.422,       631,
   54.4422,       623,
   54.4623,       647,
   54.4825,       652,
   54.5027,       615,
   54.5228,       646,
    54.543,       636,
   54.5632,       617,
   54.5833,       623,
   54.6035,       631,
   54.6237,       680,
   54.6438,       642,
    54.664,       620,
   54.6842,       661,
   54.7043,       638,
   54.7245,       674,
   54.7447,       628,
   54.7648,       619,
    54.785,       625,
   54.8052,       596,
   54.8254,       647,
   54.8455,       622,
   54.8657,       665,
   54.8859,       658,
    54.906,       656,
   54.9262,       612,
   54.9464,       636,
   54.9665,       629,
   54.9867,       660,
   55.0069,       651,
    55.027,       636,
   55.0472,       644,
   55.0674,       642,
   55.0875,       662,
   55.1077,       647,
   55.1279,       682,
   55.1481,       613,
   55.1682,       661,
   55.1884,       655,
   55.2086,       635,
   55.2287,       674,
   55.2489,       673,
   55.2691,       622,
   55.2892,       631,
   55.3094,       665,
   55.3296,       598,
   55.3497,       596,
   55.3699,       586,
   55.3901,       646,
   55.4102,       637,
   55.4304,       606,
   55.4506,       625,
   55.4707,       607,
   55.4909,       622,
   55.5111,       598,
   55.5313,       646,
   55.5514,       648,
   55.5716,       601,
   55.5918,       620,
   55.6119,       610,
   55.6321,       652,
   55.6523,       647,
   55.6724,       614,
   55.6926,       595,
   55.7128,       630,
   55.7329,       676,
   55.7531,       652,
   55.7733,       623,
   55.7934,       625,
   55.8136,       622,
   55.8338,       658,
    55.854,       624,
   55.8741,       630,
   55.8943,       650,
   55.9145,       645,
   55.9346,       619,
   55.9548,       594,
    55.975,       680,
   55.9951,       659,
   56.0153,       605,
   56.0355,       622,
   56.0556,       613,
   56.0758,       647,
    56.096,       612,
   56.1161,       650,
   56.1363,       645,
   56.1565,       670,
   56.1766,       641,
   56.1968,       616,
    56.217,       622,
   56.2372,       646,
   56.2573,       627,
   56.2775,       605,
   56.2977,       641,
   56.3178,       621,
    56.338,       630,
   56.3582,       637,
   56.3783,       609,
   56.3985,       612,
   56.4187,       648,
   56.4388,       629,
    56.459,       665,
   56.4792,       641,
   56.4993,       631,
   56.5195,       625,
   56.5397,       653,
   56.5598,       630,
     56.58,       585,
   56.6002,       654,
   56.6204,       624,
   56.6405,       642,
   56.6607,       606,
   56.6809,       624,
    56.701,       629,
   56.7212,       615,
   56.7414,       632,
   56.7615,       601,
   56.7817,       608,
   56.8019,       607,
    56.822,       616,
   56.8422,       636,
   56.8624,       629,
   56.8825,       622,
   56.9027,       589,
   56.9229,       613,
   56.9431,       655,
   56.9632,       622,
   56.9834,       607,
   57.0036,       673,
   57.0237,       626,
   57.0439,       653,
   57.0641,       594,
   57.0842,       608,
   57.1044,       611,
   57.1246,       611,
   57.1447,       605,
   57.1649,       626,
   57.1851,       617,
   57.2052,       655,
   57.2254,       590,
   57.2456,       601,
   57.2657,       586,
   57.2859,       644,
   57.3061,       657,
   57.3263,       629,
   57.3464,       611,
   57.3666,       605,
   57.3868,       580,
   57.4069,       610,
   57.4271,       600,
   57.4473,       657,
   57.4674,       591,
   57.4876,       625,
   57.5078,       605,
   57.5279,       664,
   57.5481,       593,
   57.5683,       603,
   57.5884,       639,
   57.6086,       634,
   57.6288,       614,
   57.6489,       563,
   57.6691,       620,
   57.6893,       622,
   57.7095,       605,
   57.7296,       593,
   57.7498,       593,
     57.77,       620,
   57.7901,       642,
   57.8103,       605,
   57.8305,       664,
   57.8506,       615,
   57.8708,       616,
    57.891,       645,
   57.9111,       633,
   57.9313,       532,
   57.9515,       651,
   57.9716,       628,
   57.9918,       671,
    58.012,       598,
   58.0322,       664,
   58.0523,       613,
   58.0725,       594,
   58.0927,       624,
   58.1128,       633,
    58.133,       670,
   58.1532,       615,
   58.1733,       608,
   58.1935,       590,
   58.2137,       651,
   58.2338,       627,
    58.254,       623,
   58.2742,       580,
   58.2943,       588,
   58.3145,       634,
   58.3347,       589,
   58.3548,       595,
    58.375,       619,
   58.3952,       558,
   58.4154,       634,
   58.4355,       617,
   58.4557,       671,
   58.4759,       585,
    58.496,       645,
   58.5162,       635,
   58.5364,       589,
   58.5565,       589,
   58.5767,       590,
   58.5969,       581,
    58.617,       615,
   58.6372,       591,
   58.6574,       639,
   58.6775,       571,
   58.6977,       627,
   58.7179,       620,
    58.738,       603,
   58.7582,       638,
   58.7784,       609,
   58.7986,       603,
   58.8187,       602,
   58.8389,       597,
   58.8591,       617,
   58.8792,       581,
   58.8994,       610,
   58.9196,       638,
   58.9397,       634,
   58.9599,       607,
   58.9801,       636,
   59.0002,       612,
   59.0204,       639,
   59.0406,       619,
   59.0607,       589,
   59.0809,       598,
   59.1011,       623,
   59.1213,       629,
   59.1414,       598,
   59.1616,       637,
   59.1818,       608,
   59.2019,       626,
   59.2221,       645,
   59.2423,       661,
   59.2624,       609,
   59.2826,       658,
   59.3028,       652,
   59.3229,       612,
   59.3431,       623,
   59.3633,       627,
   59.3834,       628,
   59.4036,       570,
   59.4238,       564,
   59.4439,       624,
   59.4641,       623,
   59.4843,       603,
   59.5045,       632,
   59.5246,       647,
   59.5448,       590,
    59.565,       574,
   59.5851,       621,
   59.6053,       602,
   59.6255,       598,
   59.6456,       642,
   59.6658,       593,
    59.686,       606,
   59.7061,       599,
   59.7263,       628,
   59.7465,       565,
   59.7666,       643,
   59.7868,       628,
    59.807,       595,
   59.8271,       591,
   59.8473,       647,
   59.8675,       563,
   59.8877,       578,
   59.9078,       633,
    59.928,       590,
   59.9482,       588,
   59.9683,       613,
   59.9885,       620,
   60.0087,       576,
   60.0288,       574,
    60.049,       576,
   60.0692,       603,
   60.0893,       595,
   60.1095,       572,
   60.1297,       633,
   60.1498,       616,
     60.17,       644,
   60.1902,       589,
   60.2104,       606,
   60.2305,       616,
   60.2507,       619,
   60.2709,       599,
    60.291,       624,
   60.3112,       605,
   60.3314,       637,
   60.3515,       621,
   60.3717,       630,
   60.3919,       583,
    60.412,       613,
   60.4322,       607,
   60.4524,       633,
   60.4725,       631,
   60.4927,       604,
   60.5129,       641,
    60.533,       614,
   60.5532,       646,
   60.5734,       590,
   60.5936,       594,
   60.6137,       590,
   60.6339,       625,
   60.6541,       596,
   60.6742,       654,
   60.6944,       664,
   60.7146,       630,
   60.7347,       614,
   60.7549,       633,
   60.7751,       592,
   60.7952,       625,
   60.8154,       603,
   60.8356,       635,
   60.8557,       580,
   60.8759,       603,
   60.8961,       623,
   60.9163,       642,
   60.9364,       606,
   60.9566,       583,
   60.9768,       579,
   60.9969,       622,
   61.0171,       600,
   61.0373,       611,
   61.0574,       587,
   61.0776,       617,
   61.0978,       624,
   61.1179,       600,
   61.1381,       607,
   61.1583,       626,
   61.1784,       615,
   61.1986,       617,
   61.2188,       638,
   61.2389,       583,
   61.2591,       598,
   61.2793,       592,
   61.2995,       638,
   61.3196,       570,
   61.3398,       598,
     61.36,       542,
   61.3801,       579,
   61.4003,       586,
   61.4205,       624,
   61.4406,       590,
   61.4608,       650,
    61.481,       578,
   61.5011,       600,
   61.5213,       638,
   61.5415,       593,
   61.5616,       634,
   61.5818,       633,
    61.602,       596,
   61.6221,       594,
   61.6423,       610,
   61.6625,       640,
   61.6827,       607,
   61.7028,       610,
    61.723,       648,
   61.7432,       635,
   61.7633,       576,
   61.7835,       625,
   61.8037,       621,
   61.8238,       619,
    61.844,       574,
   61.8642,       613,
   61.8843,       621,
   61.9045,       625,
   61.9247,       592,
   61.9448,       603,
    61.965,       601,
   61.9852,       615,
   62.0054,       603,
   62.0255,       605,
   62.0457,       603,
   62.0659,       655,
    62.086,       594,
   62.1062,       627,
   62.1264,       608,
   62.1465,       595,
   62.1667,       620,
   62.1869,       618,
    62.207,       624,
   62.2272,       572,
   62.2474,       607,
   62.2675,       588,
   62.2877,       602,
   62.3079,       617,
    62.328,       656,
   62.3482,       620,
   62.3684,       623,
   62.3886,       591,
   62.4087,       610,
   62.4289,       652,
   62.4491,       585,
   62.4692,       621,
   62.4894,       609,
   62.5096,       598,
   62.5297,       579,
   62.5499,       589,
   62.5701,       639,
   62.5902,       623,
   62.6104,       566,
   62.6306,       610,
   62.6507,       562,
   62.6709,       568,
   62.6911,       659,
   62.7112,       567,
   62.7314,       631,
   62.7516,       632,
   62.7718,       618,
   62.7919,       608,
   62.8121,       598,
   62.8323,       653,
   62.8524,       615,
   62.8726,       609,
   62.8928,       641,
   62.9129,       603,
   62.9331,       610,
   62.9533,       618,
   62.9734,       600,
   62.9936,       612,
   63.0138,       592,
   63.0339,       612,
   63.0541,       607,
   63.0743,       608,
   63.0945,       601,
   63.1146,       635,
   63.1348,       626,
    63.155,       627,
   63.1751,       620,
   63.1953,       613,
   63.2155,       604,
   63.2356,       599,
   63.2558,       595,
    63.276,       612,
   63.2961,       625,
   63.3163,       551,
   63.3365,       608,
   63.3566,       613,
   63.3768,       591,
    63.397,       605,
   63.4171,       606,
   63.4373,       614,
   63.4575,       646,
   63.4777,       608,
   63.4978,       620,
    63.518,       607,
   63.5382,       605,
   63.5583,       584,
   63.5785,       613,
   63.5987,       595,
   63.6188,       588,
    63.639,       604,
   63.6592,       612,
   63.6793,       637,
   63.6995,       591,
   63.7197,       643,
   63.7398,       567,
     63.76,       600,
   63.7802,       629,
   63.8003,       551,
   63.8205,       620,
   63.8407,       601,
   63.8609,       642,
    63.881,       612,
   63.9012,       603,
   63.9214,       617,
   63.9415,       599,
   63.9617,       625,
   63.9819,       601,
    64.002,       601,
   64.0222,       619,
   64.0424,       625,
   64.0625,       595,
   64.0827,       601,
   64.1029,       591,
    64.123,       573,
   64.1432,       625,
   64.1634,       623,
   64.1836,       638,
   64.2037,       603,
   64.2239,       603,
   64.2441,       634,
   64.2642,       585,
   64.2844,       589,
   64.3046,       581,
   64.3247,       629,
   64.3449,       576,
   64.3651,       608,
   64.3852,       586,
   64.4054,       600,
   64.4256,       632,
   64.4457,       654,
   64.4659,       627,
   64.4861,       586,
   64.5062,       616,
   64.5264,       613,
   64.5466,       600,
   64.5668,       615,
   64.5869,       661,
   64.6071,       599,
   64.6273,       587,
   64.6474,       598,
   64.6676,       593,
   64.6878,       593,
   64.7079,       596,
   64.7281,       623,
   64.7483,       624,
   64.7684,       593,
   64.7886,       610,
   64.8088,       616,
   64.8289,       591,
   64.8491,       635,
   64.8693,       596,
   64.8894,       607,
   64.9096,       606,
   64.9298,       612,
     64.95,       615,
   64.9701,       605,
   64.9903,       608,
   65.0105,       599,
   65.0306,       588,
   65.0508,       653,
    65.071,       624,
   65.0911,       592,
   65.1113,       575,
   65.1315,       583,
   65.1516,       623,
   65.1718,       598,
    65.192,       586,
   65.2121,       568,
   65.2323,       602,
   65.2525,       605,
   65.2727,       617,
   65.2928,       613,
    65.313,       591,
   65.3332,       600,
   65.3533,       623,
   65.3735,       598,
   65.3937,       573,
   65.4138,       606,
    65.434,       566,
   65.4542,       583,
   65.4743,       590,
   65.4945,       651,
   65.5147,       621,
   65.5348,       591,
    65.555,       594,
   65.5752,       630,
   65.5953,       624,
   65.6155,       574,
   65.6357,       610,
   65.6559,       617,
    65.676,       582,
   65.6962,       593,
   65.7164,       617,
   65.7365,       616,
   65.7567,       597,
   65.7769,       577,
    65.797,       608,
   65.8172,       607,
   65.8374,       601,
   65.8575,       604,
   65.8777,       565,
   65.8979,       605,
    65.918,       599,
   65.9382,       585,
   65.9584,       648,
   65.9786,       648,
   65.9987,       630,
   66.0189,       622,
   66.0391,       616,
   66.0592,       616,
   66.0794,       596,
   66.0996,       620,
   66.1197,       620,
   66.1399,       657,
   66.1601,       626,
   66.1802,       640,
   66.2004,       622,
   66.2206,       644,
   66.2407,       627,
   66.2609,       641,
   66.2811,       603,
   66.3012,       608,
   66.3214,       614,
   66.3416,       615,
   66.3618,       605,
   66.3819,       629,
   66.4021,       601,
   66.4223,       596,
   66.4424,       622,
   66.4626,       603,
   66.4828,       638,
   66.5029,       566,
   66.5231,       650,
   66.5433,       582,
   66.5634,       614,
   66.5836,       585,
   66.6038,       600,
   66.6239,       601,
   66.6441,       580,
   66.6643,       605,
   66.6844,       631,
   66.7046,       559,
   66.7248,       590,
    66.745,       576,
   66.7651,       598,
   66.7853,       613,
   66.8055,       604,
   66.8256,       627,
   66.8458,       608,
    66.866,       626,
   66.8861,       593,
   66.9063,       627,
   66.9265,       632,
   66.9466,       611,
   66.9668,       615,
    66.987,       593,
   67.0071,       601,
   67.0273,       604,
   67.0475,       588,
   67.0677,       620,
   67.0878,       598,
    67.108,       596,
   67.1282,       610,
   67.1483,       632,
   67.1685,       573,
   67.1887,       621,
   67.2088,       598,
    67.229,       596,
   67.2492,       599,
   67.2693,       585,
   67.2895,       608,
   67.3097,       645,
   67.3298,       591,
     67.35,       604,
   67.3702,       569,
   67.3903,       562,
   67.4105,       640,
   67.4307,       671,
   67.4509,       620,
    67.471,       574,
   67.4912,       622,
   67.5114,       640,
   67.5315,       610,
   67.5517,       569,
   67.5719,       621,
    67.592,       594,
   67.6122,       596,
   67.6324,       600,
   67.6525,       598,
   67.6727,       586,
   67.6929,       599,
    67.713,       601,
   67.7332,       604,
   67.7534,       614,
   67.7735,       592,
   67.7937,       575,
   67.8139,       604,
   67.8341,       589,
   67.8542,       614,
   67.8744,       578,
   67.8946,       566,
   67.9147,       587,
   67.9349,       576,
   67.9551,       562,
   67.9752,       575,
   67.9954,       585,
   68.0156,       623,
   68.0357,       572,
   68.0559,       608,
   68.0761,       599,
   68.0962,       605,
   68.1164,       628,
   68.1366,       615,
   68.1568,       583,
   68.1769,       646,
   68.1971,       605,
   68.2173,       584,
   68.2374,       617,
   68.2576,       571,
   68.2778,       607,
   68.2979,       557,
   68.3181,       585,
   68.3383,       594,
   68.3584,       622,
   68.3786,       574,
   68.3988,       614,
   68.4189,       607,
   68.4391,       546,
   68.4593,       639,
   68.4794,       553,
   68.4996,       603,
   68.5198,       590,
     68.54,       631,
   68.5601,       584,
   68.5803,       611,
   68.6005,       553,
   68.6206,       601,
   68.6408,       564,
    68.661,       626,
   68.6811,       635,
   68.7013,       610,
   68.7215,       587,
   68.7416,       612,
   68.7618,       573,
    68.782,       609,
   68.8021,       621,
   68.8223,       557,
   68.8425,       584,
   68.8626,       539,
   68.8828,       616,
    68.903,       600,
   68.9232,       653,
   68.9433,       614,
   68.9635,       599,
   68.9837,       584,
   69.0038,       607,
    69.024,       610,
   69.0442,       582,
   69.0643,       593,
   69.0845,       579,
   69.1047,       623,
   69.1248,       546,
    69.145,       593,
   69.1652,       545,
   69.1853,       565,
   69.2055,       565,
   69.2257,       587,
   69.2459,       613,
    69.266,       584,
   69.2862,       584,
   69.3064,       597,
   69.3265,       610,
   69.3467,       592,
   69.3669,       607,
    69.387,       634,
   69.4072,       619,
   69.4274,       578,
   69.4475,       589,
   69.4677,       610,
   69.4879,       631,
    69.508,       613,
   69.5282,       590,
   69.5484,       615,
   69.5685,       611,
   69.5887,       578,
   69.6089,       622,
   69.6291,       634,
   69.6492,       625,
   69.6694,       587,
   69.6896,       642,
   69.7097,       591,
   69.7299,       581,
   69.7501,       606,
   69.7702,       607,
   69.7904,       602,
   69.8106,       614,
   69.8307,       586,
   69.8509,       589,
   69.8711,       619,
   69.8912,       588,
   69.9114,       592,
   69.9316,       596,
   69.9517,       592,
   69.9719,       572,
   69.9921,       624,
   70.0123,       585,
   70.0324,       615,
   70.0526,       611,
   70.0728,       613,
   70.0929,       576,
   70.1131,       631,
   70.1333,       620,
   70.1534,       579,
   70.1736,       621,
   70.1938,       600,
   70.2139,       636,
   70.2341,       667,
   70.2543,       620,
   70.2744,       644,
   70.2946,       599,
   70.3148,       631,
    70.335,       599,
   70.3551,       588,
   70.3753,       617,
   70.3955,       604,
   70.4156,       631,
   70.4358,       575,
    70.456,       649,
   70.4761,       616,
   70.4963,       591,
   70.5165,       599,
   70.5366,       581,
   70.5568,       591,
    70.577,       584,
   70.5971,       576,
   70.6173,       621,
   70.6375,       593,
   70.6576,       603,
   70.6778,       636,
    70.698,       592,
   70.7182,       612,
   70.7383,       622,
   70.7585,       652,
   70.7787,       601,
   70.7988,       585,
    70.819,       577,
   70.8392,       581,
   70.8593,       589,
   70.8795,       613,
   70.8997,       639,
   70.9198,       589,
     70.94,       607,
   70.9602,       590,
   70.9803,       591,
   71.0005,       604,
   71.0207,       560,
   71.0409,       564,
    71.061,       616,
   71.0812,       588,
   71.1014,       621,
   71.1215,       608,
   71.1417,       597,
   71.1619,       662,
    71.182,       582,
   71.2022,       597,
   71.2224,       592,
   71.2425,       628,
   71.2627,       622,
   71.2829,       641,
    71.303,       626,
   71.3232,       624,
   71.3434,       629,
   71.3635,       606,
   71.3837,       601,
   71.4039,       575,
   71.4241,       594,
   71.4442,       620,
   71.4644,       582,
   71.4846,       590,
   71.5047,       605,
   71.5249,       655,
   71.5451,       602,
   71.5652,       605,
   71.5854,       615,
   71.6056,       618,
   71.6257,       648,
   71.6459,       621,
   71.6661,       612,
   71.6862,       662,
   71.7064,       589,
   71.7266,       583,
   71.7467,       628,
   71.7669,       640,
   71.7871,       570,
   71.8073,       637,
   71.8274,       627,
   71.8476,       551,
   71.8678,       611,
   71.8879,       611,
   71.9081,       672,
   71.9283,       609,
   71.9484,       653,
   71.9686,       616,
   71.9888,       631,
   72.0089,       652,
   72.0291,       641,
   72.0493,       608,
   72.0694,       621,
   72.0896,       627,
   72.1098,       604,
     72.13,       610,
   72.1501,       645,
   72.1703,       623,
   72.1905,       618,
   72.2106,       615,
   72.2308,       652,
    72.251,       627,
   72.2711,       605,
   72.2913,       607,
   72.3115,       604,
   72.3316,       627,
   72.3518,       606,
    72.372,       655,
   72.3921,       668,
   72.4123,       633,
   72.4325,       627,
   72.4526,       626,
   72.4728,       571,
    72.493,       655,
   72.5132,       608,
   72.5333,       607,
   72.5535,       659,
   72.5737,       620,
   72.5938,       640,
    72.614,       628,
   72.6342,       624,
   72.6543,       556,
   72.6745,       634,
   72.6947,       652,
   72.7148,       601,
    72.735,       612,
   72.7552,       656,
   72.7753,       644,
   72.7955,       631,
   72.8157,       640,
   72.8358,       614,
    72.856,       655,
   72.8762,       637,
   72.8964,       592,
   72.9165,       638,
   72.9367,       603,
   72.9569,       644,
    72.977,       597,
   72.9972,       641,
   73.0174,       623,
   73.0375,       628,
   73.0577,       599,
   73.0779,       601,
    73.098,       628,
   73.1182,       638,
   73.1384,       610,
   73.1585,       618,
   73.1787,       614,
   73.1989,       644,
   73.2191,       611,
   73.2392,       620,
   73.2594,       665,
   73.2796,       641,
   73.2997,       613,
   73.3199,       608,
   73.3401,       635,
   73.3602,       655,
   73.3804,       638,
   73.4006,       653,
   73.4207,       649,
   73.4409,       642,
   73.4611,       654,
   73.4812,       657,
   73.5014,       674,
   73.5216,       686,
   73.5417,       635,
   73.5619,       651,
   73.5821,       662,
   73.6023,       681,
   73.6224,       701,
   73.6426,       742,
   73.6628,       732,
   73.6829,       786,
   73.7031,       849,
   73.7233,       799,
   73.7434,       834,
   73.7636,       811,
   73.7838,       849,
   73.8039,       850,
   73.8241,       847,
   73.8443,       869,
   73.8644,       916,
   73.8846,       914,
   73.9048,       949,
   73.9249,      1058,
   73.9451,      1079,
   73.9653,      1239,
   73.9855,      1444,
   74.0056,      1691,
   74.0258,      2211,
    74.046,      3036,
   74.0661,      4920,
   74.0863,      8093,
   74.1065,     12012,
   74.1266,     12469,
   74.1468,      9450,
    74.167,      5636,
   74.1871,      3606,
   74.2073,      2578,
   74.2275,      2209,
   74.2476,      2207,
   74.2678,      2616,
    74.288,      3804,
   74.3082,      5251,
   74.3283,      6644,
   74.3485,      6339,
   74.3687,      4517,
   74.3888,      2958,
    74.409,      2045,
   74.4292,      1493,
   74.4493,      1239,
   74.4695,      1094,
   74.4897,       959,
   74.5098,       906,
     74.53,       934,
   74.5502,       880,
   74.5703,       790,
   74.5905,       772,
   74.6107,       807,
   74.6308,       756,
    74.651,       747,
   74.6712,       737,
   74.6914,       692,
   74.7115,       683,
   74.7317,       704,
   74.7519,       661,
    74.772,       666,
   74.7922,       704,
   74.8124,       628,
   74.8325,       624,
   74.8527,       647,
   74.8729,       676,
    74.893,       599,
   74.9132,       686,
   74.9334,       699,
   74.9535,       664,
   74.9737,       630,
   74.9939,       678,
    75.014,       642,
   75.0342,       621,
   75.0544,       640,
   75.0746,       648,
   75.0947,       627,
   75.1149,       711,
   75.1351,       636,
   75.1552,       635,
   75.1754,       632,
   75.1956,       660,
   75.2157,       668,
   75.2359,       663,
   75.2561,       657,
   75.2762,       654,
   75.2964,       642,
   75.3166,       655,
   75.3367,       638,
   75.3569,       660,
   75.3771,       638,
   75.3973,       660,
   75.4174,       614,
   75.4376,       610,
   75.4578,       627,
   75.4779,       646,
   75.4981,       584,
   75.5183,       625,
   75.5384,       668,
   75.5586,       584,
   75.5788,       631,
   75.5989,       613,
   75.6191,       602,
   75.6393,       651,
   75.6594,       646,
   75.6796,       595,
   75.6998,       619,
   75.7199,       601,
   75.7401,       625,
   75.7603,       614,
   75.7805,       639,
   75.8006,       615,
   75.8208,       615,
    75.841,       597,
   75.8611,       599,
   75.8813,       617,
   75.9015,       556,
   75.9216,       629,
   75.9418,       606,
    75.962,       623,
   75.9821,       645,
   76.0023,       646,
   76.0225,       605,
   76.0426,       598,
   76.0628,       589,
    76.083,       587,
   76.1032,       593,
   76.1233,       574,
   76.1435,       648,
   76.1637,       569,
   76.1838,       615,
    76.204,       628,
   76.2242,       600,
   76.2443,       594,
   76.2645,       613,
   76.2847,       639,
   76.3048,       623,
    76.325,       617,
   76.3452,       620,
   76.3653,       624,
   76.3855,       626,
   76.4057,       590,
   76.4258,       613,
    76.446,       623,
   76.4662,       652,
   76.4864,       618,
   76.5065,       589,
   76.5267,       631,
   76.5469,       625,
    76.567,       596,
   76.5872,       602,
   76.6074,       595,
   76.6275,       591,
   76.6477,       609,
   76.6679,       589,
    76.688,       570,
   76.7082,       607,
   76.7284,       603,
   76.7485,       609,
   76.7687,       602,
   76.7889,       637,
    76.809,       630,
   76.8292,       612,
   76.8494,       597,
   76.8696,       571,
   76.8897,       603,
   76.9099,       610,
   76.9301,       601,
   76.9502,       603,
   76.9704,       653,
   76.9906,       605,
   77.0107,       646,
   77.0309,       595,
   77.0511,       615,
   77.0712,       600,
   77.0914,       661,
   77.1116,       623,
   77.1317,       618,
   77.1519,       659,
   77.1721,       644,
   77.1923,       637,
   77.2124,       576,
   77.2326,       623,
   77.2528,       600,
   77.2729,       590,
   77.2931,       586,
   77.3133,       620,
   77.3334,       588,
   77.3536,       614,
   77.3738,       624,
   77.3939,       592,
   77.4141,       622,
   77.4343,       610,
   77.4544,       602,
   77.4746,       569,
   77.4948,       590,
   77.5149,       576,
   77.5351,       589,
   77.5553,       614,
   77.5755,       636,
   77.5956,       602,
   77.6158,       638,
    77.636,       620,
   77.6561,       559,
   77.6763,       629,
   77.6965,       609,
   77.7166,       603,
   77.7368,       619,
    77.757,       644,
   77.7771,       640,
   77.7973,       579,
   77.8175,       592,
   77.8376,       628,
   77.8578,       590,
    77.878,       658,
   77.8981,       603,
   77.9183,       611,
   77.9385,       594,
   77.9587,       618,
   77.9788,       595,
    77.999,       584,
