;RAW4.00
[RawHeader]
Date=11/26/2025
EstimatedTotalTime=426.6
FurtherDQLReading=0
HardwareIndicator=65519
MeasuredTotalTime=4.29633
MeasurementFlag=1
NumberOfMeasuredRanges=1
NumberOfRanges=1
Time=19:28:57

[VarInfo]
Type=USER
Flags=0
Value=Lab Manager

[VarInfo]
Type=SAMPLEID
Flags=0
Value=Commander Sample ID

[VarInfo]
Type=COMMENT
Flags=0
Value=

[VarInfo]
Type=UTF
Flags=0
Value=

[VarInfo]
Type=CREATOR
Flags=0
Value=V5Converter

[VarInfo]
Type=CREATOR_VERSION
Flags=0
Value=4.4.16.0

[HardwareConfiguration]
AbsorptionFactor=9999
ActivateAbsorber=0
Alpha1=1.5406
Alpha2=1.54439
AlphaAverage=1.54184
AlphaRatio=0.5
Analyzer=0
Anode=Cu
AntiScatteringSlit=9999
BeamOpticsFlags=0
Beta=1.39222
BetaRelativeIntensity=0
DeactivateAbsorber=0
DetectorSlit=9999
DivergenceSlit=9999
GoniometerControl=0
GoniometerDiameter=282
GoniometerModel=256
GoniometerStage=7
Monochromator=0
NearSampleSlit=9999
PrimarySollerSlit=9999
SampleChanger=0
SecondSollerSlit=9999
SynchronousAxis=0
ThinFilmAttachment=9999
WaveUnit=A

[RangeHeader]
ActuallyUsedLambda=1.54184
AdditionalDetectorMask=257
DataRecordLength=4
DelayTime=0
DisplayPlaneNumber=0
EstimatedScanTime=427
ExtraParametersMask=0
GeneratorCurrent=10
GeneratorVoltage=30
Increment=0.0201685
Increment3=0
NumberOfCompletedData=1885
NumberOfCounts=1
NumberOfDetectors=0
NumberOfDrives=3
NumberOfEncoderDrives=0
NumberOfMeasuredData=1885
NumberOfVaryingParameters=0
RangeStartTime=0
RotationSpeed=0
ScanMode=1
ScanType=Locked Coupled
SimulatedMeasConditions=0
SlitChangerIn=0
SmootingWidth=0
Start=40.0015
Steps=1885
SynchronousRotation=0
Time=33

[VarInfo]
Type=PSD_DISCRIM
Flags=0
Value=0.11;0.5

[VarInfo]
Type=OPTICS_V5
Flags=0
Value=H4sIAAAAAAAEAO1d63KjOhJ+Fda/zqmtBIPtXKaITzm2J+OaOHbFTnKmtrZcBORYZzC4AOey//d99hl2X2x1QViIS8C3JBN+TCaodWm6+2vUUkfS/nieW9IjcD3o2GcV5bBakYBtOCa0H84qS396oBxV/mhqF44NnTnwgdt25gvHBrbf0X1dQq1t78uzB88qM99ffJHlp6enw6faoeM+yGq1qsh/9i9HxgzM9QNoe75uG6AStjJfb1WRbqEH7y1wpc/BWWXFR0joAM9w4cInL/Bj4UHLsSW+3oXrLBc9NBZ6t3Pgojcb3P8FDH+o+7OzitwBj9AAMt+CrxUfl1Lblu55QRehTORzoM8XqLDt2L4ObeBy/coBc6yHluEvdYtxoR6o1ePT02O5h8TkLue4tzhrTW2EZGjqqBswQr3oFvyXjl+9OdUtD2hyGln7c259hcAyrwHqHhq4EDFpA/KbJ8lNjfKD1ToCFipvdm00JDA1OUbR6Btwou9Ab2HpL824AjQ5tXK8m+bF4OrHhPzodEft64TGrBVWDOsoPhpP1bBWhrxWvISy1r0hIUP+4r8skMLHrm78xG8sGODQhXPdfSHkZBMMakgD9GxISBvSeHkPOIFIQeOidilHx44baRI9r5mSRmyEDSxUYBJZ3blu/xy4JnCvAfYzAL0wsdX3b8s5NVnMwIfj6+8T9KPV/l7IxHm5Jhp5z0OvBh9BE+kGCS98DAk920dCZMIVSikeHA9SJulgmhwp1bAq2ZMXfZT4B2LSAxc+QFu3ogSlwl6OWi7Ssb/0moPwnSLFGmsYPPedJdIj0qJQrgWE0MJ5JCOdEXICmjFtjmnJUA7J0tRxpRHQLUBtYA3AytxYcejGiMm4JZa46kmmLG0LrhEWBa3xcus++8A2MZDfDYZpCWdMkQKtj5nwHfcltGVFk+OFGseMJxH2qHoYWND7cnJosmJN5ku1uCnh1+H65qyTKx3Y545jAR1NEG5s6BPpdiDSG56bXcI59IlYwiKvWdVk7knrgKm+tPxb3VoCboigVyQ96CPXTshnFewlKri/oQta5l9LD8GnYEuZYx67mbHTJoqe6ZblPK0cjVCOarZnwPgJzFUVVqC1ESPOHKsWvx33pNH5Zl7erhEyxkg2xVq1lr7TdoHug6HrLIDrvzAWEyiR9/eIRfdMhLKr5fweuE21rslCEdaQRS08UPF//xMyUSUc9B0TNG8Quqbos4xMnTwz90Y+PzEHluy7tuWt5HgP/ND5vNXOHBXjLvaN2aNbYuh5A79Evm3IJvErCL6JJ23LP418rD3OPSHRTOHDEjnla/gw85sIdabECnU0BoKwUKWYS+vrz5fAfvBnTbXRwKJhj2nOjrJISkNktZevObqMVm/q5DL4SnFwGS02cm5pFninPwKqkpa1mOmKYIUieVuWOJh2nCVqyWzxf//ehzWm2Nxw9uJBQ7dIeQJnTA/KYaNePXrNFtfo7ca2MPfItOjcf/WMZelYS+paugfVBtErK9H60Ibz5bx5oBwenx4fndaUWv3kSK0pjePu32vVE4S4oAZGIvklvWZQ4W0Rs4b0UpC0Rk/7QJiajTD10yOsXjvdJsRYdyXGNhLfFkDGuto1yh6Bqz+IoV6M/ulxppzUt4kz1l2Js43EtwWcsa52jLNz4OupIMPET46w2qmqqttD2Kq7EmEbiW9jhK262jHCrvGaRirECHVXGHuvCFutth02NsJWrKMSVWsKbh08xTrZCZK+OsbSG7gQ2D5ZHRSgJJK3tspG1g4H057tH9XfH6CibEVXr/OjKbkXhfRCBYDfqOeDOWLs0nmABl3VvJn0rm5bl73OpP2tN9TkFYkJfAye/WbPftQtiMQzg4uVjCJaIvW07+CFjI1lEf6uyTEWsnm67F2lsnIJbSARW0kbWtlk6OEgY+yhA20/e3B1k8GZLoaD0auqCHeKD6S58wgk35HmwJjpNrYKCTmTxd/SeKxl8/ienF2WXefzdFk9bOTm6N5Lz546UqiqhAVciZbr3FOQY3BWIVUkVBrdJr+ZtC6H31rRcrGRhEeyyEjkXXKxo0bYURPZUVPYUbPYUQuzEywL8PxEyoQBQloib5PW7UUWe0HrokySmCrg8D78PeybkkWGzrvjVjIvuH4+FiIbUQEDqBXeyxN46LJSkY3uZbffvRqnSMV2TCAFbaXVSDlkQmfBvNq4EkHsASVZZdetcW+QpTTSOp+8YlOLgL9pYnk4ToQicvl10J4MrpMZJONJkeZyfMe6Ed+xvgA2skTfcYU8TFacvPmcsQFLZ8dr7r82tXQiP3O7dSw/voYXlO4q5vl5u6WEjcypLxqFfRNqVSHyCL4FKaFHctihVBMCjFp1f7FErbF+MBEXRsEvZLo55TW19tJ1sT+LmlpQuitTm7f2YWpolHD6sQ1TaySFsh/E0uKy2LulDZ0nkgHOmxQp25WV3aUEnW+xcHMnRJr5lluqhymm+EkWW+4491hde7Ul3ssWbV9+7YtfJA0UTQyNGXBfyVbbPA8ud74bklUw60j9YgWfilQ/I4dzraYmBmuZ2QhiKJW9qxqLdLI3h6IxR/YytzAXT1vD42MIIXVJnC4nR8cylyaJ7OZRhxZeJcCPHu2eWH2ZQFkmUJYJlGUCZZlA+fE2xcsEyvezJV4mUP6aCCsTKN8TxsoEyl8VZ2UC5XvCWZlA+ashrEygfE8IKxMoywTKMoGyTKAsEyjLBMoygbJMoCwTKMsEyjKBskygLBMoywTKMoGyTKAsEyjLBMoygbJMoHzr+KNMoCwTKD9tAiXLkUS/iumT7KzT+Cmg4tm7GScqd+cL/4UkG4arGcVOT+72h4PRhP4scnoyGTg0xcTzk2U+BzLzcGMl7XBjde+HGw8WbefceR5MR45lATfhiGNKyDjkmKsg/WbotmTQQ8ElNJZEifQE7N/XgX9k+LhXSSBnuYaE6hunwkb7FPSZfOxxRGTIPPKL8PePe2KymphYK0bAR+scevtxXAin6Q2diJrmRGpv50S+wmdgEkNlcw/RmVjQz3IliCz1U2CAaRv4kdXICV5EJGb6ELHy5h6E61FQZYr/YA2o98gntQ/sOmq5XMfxeudlE7OmVzSsTJpYMhZe0hcRy1SR/jGf/zPDjH/DR/7fA2QfErQ9hAVgol98R9I5hWWaMq5mhBds4KeJUp0oaQYcIb5mwIVtN52ZmPP5qH/5US30lx930PRnYm4HLtvZktP8/WxBxzgL44DNsuvjPeVdZqh+7nWGuODWWWeI97KTtI5vABumgB1a+LnBszXslNBZz+i3gpzt3wSirjOzGenzhQXuZgBYY/QC/KUgIkkjH65UJ0ChmfamMj+F+lCxGJtFbxiJ1dIisfpGkRjhMR6HvT9h3thLD5hkeHHgLInKwm1g17oJl16CldWVYB+fXrg3mE494KdZfesZevz3Iay2B1ceYybnbh1ywVU1LSlVPTypn6qNRkNN8LvHjcOTRv24dqQqvK8VhNAM7mETbitc+w7DEUCRgJl9i2FYh7v9roNCXwNnMmzhLkORh4SYKLFGsfsMwz42ifVFRj70nYaF9FrM/4zwzYaj4jcbRuW787sNw+F2cbvhyRss3uHlOks3wMyxzMQtgMsX+xm8pBxzcfnj6s/ujy654bCjSsOZ7olX4OYEsRyOEwezQMpa3mDWKOO8X3k4Wj2jProvYAvX6KYzLmrzl7v28CTPUlxNiU9Yi8wL0ecUu0XdWrmWfniNJk2pxn6HJHazGl4xZ9PpjyfkXwFHw4ba6R6gstmscZebgP09bgIKCIswkLYN2N/zNmAmj6JSs3YC+59rJ1Cp53Ii1c+wFVhGSkUjpbRAqXF4dHrSUJRqPWmBqqEcHldP68dqfQeB0sontAHGieA9hcKI4+SmzLSadMAw70kjnLfkkW8dVkPLMIDnOS4E3hoRE+Mi7j2jlLwRUvyl1/ekrIcPHRqtqcpiLudicNWekB9FHA7lZ+eh0Ri4qHQnkdHp3mdFwxkkShPAfO0EGXBRYgTUqKlErdE1Wb0CGJXZGHSdNqGDKCsJ1TJnP6vqMuJUZpxuDuAUxgVFpsREEgUYMFu+rxszPNBZ5WDPRwluc5pzmitr4SQ+y+l5TBQhKMMCjfMcZLfIWj48ALPjYkzSv8ZE3eHvWs9sIu2S3oNHTCEVRwtgwGnwt6KsUpyC4BLvvcgEK46DYs5u+K03mpAfRZxdFKHbnGBVi0yvQisOP5lEYfRDEPwf22IqXU7pckqXI7qcECvsd+8VLsZPznhGTjB6jZVIzZz8ZA+dc9yig6ZEJvFifFQxXo8YAd9H0PIkfi6GHAXNPKxILbzB7vVR6AbplI5NtLGOuVT/5i2e1Rn4EFu+VFtBkewhB6uqmiyUa3yqI/WAkWUTj/6JxSqYYK6D6Pv/u9RXv2COAAA=

[PSD]
ActualTwoTheta=9999
FirstUsedChannel=0
FixedPSD=0
PSDOpening=4.99171
PSDType=5

[Drive]
DriveFlags=1
DriveName=2Theta
DriveNumber=2
DriveOffset=0
OffsetIndex=0
OscillationAmplitude=0
OscillationSpeed=0
StartPosition=40.0015

[Drive]
DriveFlags=1
DriveName=Theta
DriveNumber=1
DriveOffset=0
OffsetIndex=0
OscillationAmplitude=0
OscillationSpeed=0
StartPosition=20.0007

[Drive]
DriveFlags=1
DriveName=Phi
DriveNumber=3
DriveOffset=0
OffsetIndex=0
OscillationAmplitude=0
OscillationSpeed=0
StartPosition=0

[Data]
     Angle,       PSD,
   40.0015,       638,
   40.0217,       649,
   40.0418,       610,
    40.062,       618,
   40.0822,       648,
   40.1023,       627,
   40.1225,       614,
   40.1427,       608,
   40.1628,       653,
    40.183,       622,
   40.2032,       651,
   40.2233,       632,
   40.2435,       659,
   40.2637,       582,
   40.2838,       622,
    40.304,       605,
   40.3242,       663,
   40.3444,       623,
   40.3645,       576,
   40.3847,       643,
   40.4049,       631,
    40.425,       627,
   40.4452,       614,
   40.4654,       627,
   40.4855,       628,
   40.5057,       652,
   40.5259,       673,
    40.546,       632,
   40.5662,       586,
   40.5864,       596,
   40.6065,       581,
   40.6267,       623,
   40.6469,       630,
   40.6671,       615,
   40.6872,       607,
   40.7074,       635,
   40.7276,       626,
   40.7477,       682,
   40.7679,       644,
   40.7881,       655,
   40.8082,       624,
   40.8284,       647,
   40.8486,       655,
   40.8687,       620,
   40.8889,       619,
   40.9091,       673,
   40.9292,       641,
   40.9494,       632,
   40.9696,       593,
   40.9897,       658,
   41.0099,       637,
   41.0301,       602,
   41.0503,       641,
   41.0704,       613,
   41.0906,       624,
   41.1108,       613,
   41.1309,       625,
   41.1511,       629,
   41.1713,       615,
   41.1914,       612,
   41.2116,       651,
   41.2318,       605,
   41.2519,       664,
   41.2721,       617,
   41.2923,       638,
   41.3124,       638,
   41.3326,       652,
   41.3528,       580,
   41.3729,       623,
   41.3931,       634,
   41.4133,       628,
   41.4335,       657,
   41.4536,       632,
   41.4738,       633,
    41.494,       610,
   41.5141,       652,
   41.5343,       666,
   41.5545,       634,
   41.5746,       619,
   41.5948,       588,
    41.615,       648,
   41.6351,       683,
   41.6553,       607,
   41.6755,       599,
   41.6956,       602,
   41.7158,       659,
    41.736,       672,
   41.7562,       666,
   41.7763,       752,
   41.7965,       749,
   41.8167,       734,
   41.8368,       707,
    41.857,       735,
   41.8772,       763,
   41.8973,       706,
   41.9175,       771,
   41.9377,       737,
   41.9578,       699,
    41.978,       757,
   41.9982,       767,
   42.0183,       710,
   42.0385,       742,
   42.0587,       727,
   42.0788,       782,
    42.099,       773,
   42.1192,       709,
   42.1394,       796,
   42.1595,       772,
   42.1797,       772,
   42.1999,       786,
     42.22,       757,
   42.2402,       770,
   42.2604,       747,
   42.2805,       784,
   42.3007,       771,
   42.3209,       762,
    42.341,       752,
   42.3612,       800,
   42.3814,       776,
   42.4015,       706,
   42.4217,       733,
   42.4419,       818,
    42.462,       772,
   42.4822,       765,
   42.5024,       773,
   42.5226,       803,
   42.5427,       842,
   42.5629,       812,
   42.5831,       763,
   42.6032,       799,
   42.6234,       765,
   42.6436,       789,
   42.6637,       815,
   42.6839,       794,
   42.7041,       889,
   42.7242,       808,
   42.7444,       789,
   42.7646,       839,
   42.7847,       882,
   42.8049,       917,
   42.8251,       922,
   42.8453,       967,
   42.8654,      1045,
   42.8856,      1063,
   42.9058,      1111,
   42.9259,      1173,
   42.9461,      1195,
   42.9663,      1222,
   42.9864,      1232,
   43.0066,      1278,
   43.0268,      1421,
   43.0469,      1527,
   43.0671,      1588,
   43.0873,      1864,
   43.1074,      1990,
   43.1276,      2040,
   43.1478,      2247,
   43.1679,      2458,
   43.1881,      2694,
   43.2083,      3573,
   43.2285,      5266,
   43.2486,      9545,
   43.2688,     22281,
    43.289,     47939,
   43.3091,     64757,
   43.3293,     44111,
   43.3495,     19362,
   43.3696,     13129,
   43.3898,     18763,
     43.41,     30460,
   43.4301,     31041,
   43.4503,     17643,
   43.4705,      7516,
   43.4906,      4224,
   43.5108,      2907,
    43.531,      2419,
   43.5511,      2102,
   43.5713,      1932,
   43.5915,      1794,
   43.6117,      1603,
   43.6318,      1591,
    43.652,      1364,
   43.6722,      1248,
   43.6923,      1148,
   43.7125,      1131,
   43.7327,      1052,
   43.7528,       973,
    43.773,       905,
   43.7932,       939,
   43.8133,       885,
   43.8335,       860,
   43.8537,       870,
   43.8738,       852,
    43.894,       832,
   43.9142,       843,
   43.9344,       813,
   43.9545,       790,
   43.9747,       821,
   43.9949,       823,
    44.015,       827,
   44.0352,       819,
   44.0554,       799,
   44.0755,       860,
   44.0957,       744,
   44.1159,       729,
    44.136,       796,
   44.1562,       758,
   44.1764,       776,
   44.1965,       748,
   44.2167,       821,
   44.2369,       781,
    44.257,       790,
   44.2772,       767,
   44.2974,       742,
   44.3176,       767,
   44.3377,       765,
   44.3579,       781,
   44.3781,       762,
   44.3982,       725,
   44.4184,       713,
   44.4386,       692,
   44.4587,       729,
   44.4789,       730,
   44.4991,       740,
   44.5192,       721,
   44.5394,       759,
   44.5596,       774,
   44.5797,       756,
   44.5999,       681,
   44.6201,       696,
   44.6402,       734,
   44.6604,       718,
   44.6806,       716,
   44.7008,       732,
   44.7209,       708,
   44.7411,       718,
   44.7613,       721,
   44.7814,       714,
   44.8016,       721,
   44.8218,       710,
   44.8419,       720,
   44.8621,       692,
   44.8823,       719,
   44.9024,       722,
   44.9226,       751,
   44.9428,       703,
   44.9629,       712,
   44.9831,       734,
   45.0033,       683,
   45.0235,       777,
   45.0436,       708,
   45.0638,       667,
    45.084,       763,
   45.1041,       703,
   45.1243,       707,
   45.1445,       677,
   45.1646,       727,
   45.1848,       711,
    45.205,       688,
   45.2251,       692,
   45.2453,       742,
   45.2655,       693,
   45.2856,       721,
   45.3058,       687,
    45.326,       741,
   45.3461,       655,
   45.3663,       686,
   45.3865,       704,
   45.4067,       692,
   45.4268,       719,
    45.447,       725,
   45.4672,       687,
   45.4873,       695,
   45.5075,       729,
   45.5277,       653,
   45.5478,       710,
    45.568,       661,
   45.5882,       691,
   45.6083,       719,
   45.6285,       689,
   45.6487,       649,
   45.6688,       699,
    45.689,       690,
   45.7092,       666,
   45.7294,       716,
   45.7495,       716,
   45.7697,       732,
   45.7899,       653,
     45.81,       694,
   45.8302,       703,
   45.8504,       752,
   45.8705,       664,
   45.8907,       712,
   45.9109,       694,
    45.931,       682,
   45.9512,       673,
   45.9714,       657,
   45.9915,       751,
   46.0117,       646,
   46.0319,       675,
    46.052,       691,
   46.0722,       689,
   46.0924,       693,
   46.1126,       683,
   46.1327,       685,
   46.1529,       680,
   46.1731,       703,
   46.1932,       710,
   46.2134,       635,
   46.2336,       675,
   46.2537,       712,
   46.2739,       720,
   46.2941,       669,
   46.3142,       714,
   46.3344,       644,
   46.3546,       646,
   46.3747,       693,
   46.3949,       709,
   46.4151,       717,
   46.4352,       677,
   46.4554,       675,
   46.4756,       722,
   46.4958,       636,
   46.5159,       675,
   46.5361,       707,
   46.5563,       695,
   46.5764,       693,
   46.5966,       710,
   46.6168,       711,
   46.6369,       694,
   46.6571,       694,
   46.6773,       698,
   46.6974,       688,
   46.7176,       678,
   46.7378,       667,
   46.7579,       678,
   46.7781,       663,
   46.7983,       641,
   46.8185,       635,
   46.8386,       673,
   46.8588,       652,
    46.879,       670,
   46.8991,       699,
   46.9193,       666,
   46.9395,       664,
   46.9596,       678,
   46.9798,       700,
        47,       669,
   47.0201,       697,
   47.0403,       661,
   47.0605,       661,
   47.0806,       692,
   47.1008,       677,
    47.121,       698,
   47.1411,       684,
   47.1613,       649,
   47.1815,       676,
   47.2017,       644,
   47.2218,       666,
    47.242,       667,
   47.2622,       647,
   47.2823,       694,
   47.3025,       662,
   47.3227,       646,
   47.3428,       682,
    47.363,       670,
   47.3832,       687,
   47.4033,       616,
   47.4235,       640,
   47.4437,       651,
   47.4638,       641,
    47.484,       708,
   47.5042,       677,
   47.5243,       690,
   47.5445,       689,
   47.5647,       633,
   47.5849,       683,
    47.605,       659,
   47.6252,       688,
   47.6454,       681,
   47.6655,       645,
   47.6857,       668,
   47.7059,       692,
    47.726,       682,
   47.7462,       693,
   47.7664,       669,
   47.7865,       645,
   47.8067,       642,
   47.8269,       643,
    47.847,       678,
   47.8672,       674,
   47.8874,       663,
   47.9076,       670,
   47.9277,       667,
   47.9479,       661,
   47.9681,       645,
   47.9882,       657,
   48.0084,       706,
   48.0286,       660,
   48.0487,       659,
   48.0689,       652,
   48.0891,       682,
   48.1092,       694,
   48.1294,       640,
   48.1496,       693,
   48.1697,       628,
   48.1899,       664,
   48.2101,       710,
   48.2302,       652,
   48.2504,       643,
   48.2706,       670,
   48.2908,       668,
   48.3109,       726,
   48.3311,       637,
   48.3513,       644,
   48.3714,       662,
   48.3916,       676,
   48.4118,       636,
   48.4319,       704,
   48.4521,       648,
   48.4723,       661,
   48.4924,       650,
   48.5126,       658,
   48.5328,       690,
   48.5529,       669,
   48.5731,       669,
   48.5933,       690,
   48.6134,       665,
   48.6336,       699,
   48.6538,       731,
    48.674,       687,
   48.6941,       744,
   48.7143,       676,
   48.7345,       692,
   48.7546,       696,
   48.7748,       703,
    48.795,       667,
   48.8151,       690,
   48.8353,       681,
   48.8555,       684,
   48.8756,       701,
   48.8958,       696,
    48.916,       685,
   48.9361,       653,
   48.9563,       667,
   48.9765,       673,
   48.9967,       713,
   49.0168,       661,
    49.037,       653,
   49.0572,       682,
   49.0773,       674,
   49.0975,       721,
   49.1177,       638,
   49.1378,       709,
    49.158,       678,
   49.1782,       675,
   49.1983,       675,
   49.2185,       645,
   49.2387,       718,
   49.2588,       678,
    49.279,       712,
   49.2992,       712,
   49.3193,       696,
   49.3395,       720,
   49.3597,       661,
   49.3799,       675,
      49.4,       728,
   49.4202,       727,
   49.4404,       697,
   49.4605,       689,
   49.4807,       628,
   49.5009,       711,
    49.521,       725,
   49.5412,       678,
   49.5614,       703,
   49.5815,       730,
   49.6017,       723,
   49.6219,       687,
    49.642,       668,
   49.6622,       701,
   49.6824,       721,
   49.7025,       657,
   49.7227,       709,
   49.7429,       674,
   49.7631,       696,
   49.7832,       703,
   49.8034,       736,
   49.8236,       676,
   49.8437,       702,
   49.8639,       779,
   49.8841,       725,
   49.9042,       721,
   49.9244,       777,
   49.9446,       780,
   49.9647,       791,
   49.9849,       784,
   50.0051,       767,
   50.0252,       784,
   50.0454,       831,
   50.0656,       818,
   50.0858,       791,
   50.1059,       899,
   50.1261,       901,
   50.1463,       950,
   50.1664,       944,
   50.1866,      1009,
   50.2068,      1007,
   50.2269,      1049,
   50.2471,      1143,
   50.2673,      1247,
   50.2874,      1277,
   50.3076,      1416,
   50.3278,      1739,
   50.3479,      2266,
   50.3681,      3264,
   50.3883,      5215,
   50.4084,      8797,
   50.4286,     12597,
   50.4488,     13318,
    50.469,      9523,
   50.4891,      6101,
   50.5093,      4668,
   50.5295,      4753,
   50.5496,      6055,
   50.5698,      7192,
     50.59,      6539,
   50.6101,      4623,
   50.6303,      2899,
   50.6505,      1979,
   50.6706,      1552,
   50.6908,      1305,
    50.711,      1206,
   50.7311,      1147,
   50.7513,      1014,
   50.7715,       968,
   50.7917,       916,
   50.8118,       852,
    50.832,       850,
   50.8522,       819,
   50.8723,       840,
   50.8925,       787,
   50.9127,       763,
   50.9328,       718,
    50.953,       728,
   50.9732,       762,
   50.9933,       714,
   51.0135,       699,
   51.0337,       715,
   51.0538,       709,
    51.074,       721,
   51.0942,       742,
   51.1143,       742,
   51.1345,       690,
   51.1547,       719,
   51.1749,       649,
    51.195,       697,
   51.2152,       693,
   51.2354,       674,
   51.2555,       680,
   51.2757,       678,
   51.2959,       697,
    51.316,       690,
   51.3362,       682,
   51.3564,       680,
   51.3765,       725,
   51.3967,       676,
   51.4169,       708,
    51.437,       641,
   51.4572,       686,
   51.4774,       655,
   51.4975,       605,
   51.5177,       673,
   51.5379,       669,
   51.5581,       682,
   51.5782,       660,
   51.5984,       674,
   51.6186,       688,
   51.6387,       623,
   51.6589,       668,
   51.6791,       684,
   51.6992,       633,
   51.7194,       659,
   51.7396,       662,
   51.7597,       657,
   51.7799,       664,
   51.8001,       691,
   51.8202,       672,
   51.8404,       709,
   51.8606,       682,
   51.8808,       679,
   51.9009,       636,
   51.9211,       646,
   51.9413,       678,
   51.9614,       633,
   51.9816,       619,
   52.0018,       633,
   52.0219,       697,
   52.0421,       658,
   52.0623,       654,
   52.0824,       624,
   52.1026,       631,
   52.1228,       640,
   52.1429,       638,
   52.1631,       658,
   52.1833,       641,
   52.2034,       646,
   52.2236,       695,
   52.2438,       638,
    52.264,       633,
   52.2841,       680,
   52.3043,       629,
   52.3245,       604,
   52.3446,       604,
   52.3648,       603,
    52.385,       679,
   52.4051,       664,
   52.4253,       638,
   52.4455,       660,
   52.4656,       610,
   52.4858,       635,
    52.506,       690,
   52.5261,       640,
   52.5463,       626,
   52.5665,       649,
   52.5866,       612,
   52.6068,       638,
    52.627,       672,
   52.6472,       609,
   52.6673,       627,
   52.6875,       632,
   52.7077,       647,
   52.7278,       655,
    52.748,       620,
   52.7682,       671,
   52.7883,       659,
   52.8085,       615,
   52.8287,       685,
   52.8488,       624,
    52.869,       679,
   52.8892,       658,
   52.9093,       679,
   52.9295,       636,
   52.9497,       645,
   52.9699,       657,
     52.99,       673,
   53.0102,       636,
   53.0304,       630,
   53.0505,       648,
   53.0707,       615,
   53.0909,       630,
    53.111,       679,
   53.1312,       617,
   53.1514,       663,
   53.1715,       659,
   53.1917,       653,
   53.2119,       665,
    53.232,       635,
   53.2522,       618,
   53.2724,       697,
   53.2925,       607,
   53.3127,       616,
   53.3329,       645,
   53.3531,       661,
   53.3732,       640,
   53.3934,       673,
   53.4136,       638,
   53.4337,       704,
   53.4539,       591,
   53.4741,       638,
   53.4942,       603,
   53.5144,       647,
   53.5346,       614,
   53.5547,       605,
   53.5749,       617,
   53.5951,       650,
   53.6152,       619,
   53.6354,       659,
   53.6556,       591,
   53.6757,       650,
   53.6959,       627,
   53.7161,       602,
   53.7363,       652,
   53.7564,       615,
   53.7766,       656,
   53.7968,       610,
   53.8169,       580,
   53.8371,       639,
   53.8573,       634,
   53.8774,       629,
   53.8976,       670,
   53.9178,       632,
   53.9379,       635,
   53.9581,       649,
   53.9783,       672,
   53.9984,       635,
   54.0186,       608,
   54.0388,       658,
    54.059,       665,
   54.0791,       596,
   54.0993,       662,
   54.1195,       618,
   54.1396,       605,
   54.1598,       665,
     54.18,       642,
   54.2001,       655,
   54.2203,       615,
   54.2405,       662,
   54.2606,       650,
   54.2808,       632,
    54.301,       642,
   54.3211,       662,
   54.3413,       573,
   54.3615,       632,
   54.3816,       635,
   54.4018,       605,
    54.422,       679,
   54.4422,       613,
   54.4623,       629,
   54.4825,       648,
   54.5027,       652,
   54.5228,       609,
    54.543,       638,
   54.5632,       658,
   54.5833,       632,
   54.6035,       613,
   54.6237,       616,
   54.6438,       618,
    54.664,       649,
   54.6842,       605,
   54.7043,       602,
   54.7245,       636,
   54.7447,       651,
   54.7648,       599,
    54.785,       667,
   54.8052,       639,
   54.8254,       677,
   54.8455,       623,
   54.8657,       660,
   54.8859,       637,
    54.906,       597,
   54.9262,       646,
   54.9464,       629,
   54.9665,       662,
   54.9867,       668,
   55.0069,       614,
    55.027,       573,
   55.0472,       613,
   55.0674,       611,
   55.0875,       656,
   55.1077,       604,
   55.1279,       669,
   55.1481,       644,
   55.1682,       599,
   55.1884,       606,
   55.2086,       561,
   55.2287,       635,
   55.2489,       582,
   55.2691,       671,
   55.2892,       643,
   55.3094,       638,
   55.3296,       606,
   55.3497,       636,
   55.3699,       621,
   55.3901,       624,
   55.4102,       632,
   55.4304,       658,
   55.4506,       654,
   55.4707,       582,
   55.4909,       602,
   55.5111,       620,
   55.5313,       606,
   55.5514,       632,
   55.5716,       636,
   55.5918,       624,
   55.6119,       616,
   55.6321,       586,
   55.6523,       643,
   55.6724,       670,
   55.6926,       647,
   55.7128,       627,
   55.7329,       613,
   55.7531,       625,
   55.7733,       671,
   55.7934,       604,
   55.8136,       612,
   55.8338,       619,
    55.854,       600,
   55.8741,       645,
   55.8943,       634,
   55.9145,       596,
   55.9346,       605,
   55.9548,       637,
    55.975,       609,
   55.9951,       599,
   56.0153,       645,
   56.0355,       662,
   56.0556,       633,
   56.0758,       623,
    56.096,       612,
   56.1161,       621,
   56.1363,       677,
   56.1565,       674,
   56.1766,       620,
   56.1968,       631,
    56.217,       638,
   56.2372,       584,
   56.2573,       627,
   56.2775,       585,
   56.2977,       629,
   56.3178,       589,
    56.338,       622,
   56.3582,       662,
   56.3783,       594,
   56.3985,       578,
   56.4187,       593,
   56.4388,       618,
    56.459,       644,
   56.4792,       641,
   56.4993,       607,
   56.5195,       635,
   56.5397,       615,
   56.5598,       626,
     56.58,       594,
   56.6002,       615,
   56.6204,       596,
   56.6405,       639,
   56.6607,       603,
   56.6809,       665,
    56.701,       608,
   56.7212,       581,
   56.7414,       667,
   56.7615,       610,
   56.7817,       643,
   56.8019,       607,
    56.822,       621,
   56.8422,       618,
   56.8624,       592,
   56.8825,       657,
   56.9027,       647,
   56.9229,       617,
   56.9431,       595,
   56.9632,       624,
   56.9834,       596,
   57.0036,       603,
   57.0237,       635,
   57.0439,       647,
   57.0641,       616,
   57.0842,       623,
   57.1044,       616,
   57.1246,       570,
   57.1447,       578,
   57.1649,       607,
   57.1851,       606,
   57.2052,       638,
   57.2254,       634,
   57.2456,       592,
   57.2657,       643,
   57.2859,       628,
   57.3061,       604,
   57.3263,       572,
   57.3464,       591,
   57.3666,       567,
   57.3868,       608,
   57.4069,       626,
   57.4271,       575,
   57.4473,       631,
   57.4674,       633,
   57.4876,       564,
   57.5078,       584,
   57.5279,       605,
   57.5481,       610,
   57.5683,       578,
   57.5884,       627,
   57.6086,       600,
   57.6288,       613,
   57.6489,       594,
   57.6691,       627,
   57.6893,       654,
   57.7095,       599,
   57.7296,       632,
   57.7498,       594,
     57.77,       603,
   57.7901,       641,
   57.8103,       597,
   57.8305,       624,
   57.8506,       644,
   57.8708,       607,
    57.891,       615,
   57.9111,       584,
   57.9313,       639,
   57.9515,       591,
   57.9716,       624,
   57.9918,       627,
    58.012,       613,
   58.0322,       627,
   58.0523,       590,
   58.0725,       618,
   58.0927,       616,
   58.1128,       614,
    58.133,       614,
   58.1532,       621,
   58.1733,       622,
   58.1935,       608,
   58.2137,       607,
   58.2338,       644,
    58.254,       598,
   58.2742,       617,
   58.2943,       611,
   58.3145,       611,
   58.3347,       587,
   58.3548,       592,
    58.375,       573,
   58.3952,       608,
   58.4154,       626,
   58.4355,       599,
   58.4557,       580,
   58.4759,       604,
    58.496,       598,
   58.5162,       639,
   58.5364,       621,
   58.5565,       636,
   58.5767,       603,
   58.5969,       598,
    58.617,       608,
   58.6372,       611,
   58.6574,       640,
   58.6775,       620,
   58.6977,       578,
   58.7179,       574,
    58.738,       581,
   58.7582,       630,
   58.7784,       631,
   58.7986,       613,
   58.8187,       607,
   58.8389,       573,
   58.8591,       609,
   58.8792,       637,
   58.8994,       622,
   58.9196,       613,
   58.9397,       621,
   58.9599,       626,
   58.9801,       601,
   59.0002,       635,
   59.0204,       618,
   59.0406,       575,
   59.0607,       627,
   59.0809,       597,
   59.1011,       560,
   59.1213,       582,
   59.1414,       580,
   59.1616,       616,
   59.1818,       596,
   59.2019,       593,
   59.2221,       587,
   59.2423,       560,
   59.2624,       590,
   59.2826,       591,
   59.3028,       607,
   59.3229,       623,
   59.3431,       589,
   59.3633,       590,
   59.3834,       585,
   59.4036,       589,
   59.4238,       616,
   59.4439,       625,
   59.4641,       579,
   59.4843,       610,
   59.5045,       587,
   59.5246,       621,
   59.5448,       604,
    59.565,       612,
   59.5851,       590,
   59.6053,       647,
   59.6255,       611,
   59.6456,       663,
   59.6658,       627,
    59.686,       614,
   59.7061,       628,
   59.7263,       586,
   59.7465,       583,
   59.7666,       614,
   59.7868,       608,
    59.807,       586,
   59.8271,       604,
   59.8473,       586,
   59.8675,       601,
   59.8877,       611,
   59.9078,       628,
    59.928,       591,
   59.9482,       584,
   59.9683,       609,
   59.9885,       634,
   60.0087,       591,
   60.0288,       583,
    60.049,       577,
   60.0692,       622,
   60.0893,       625,
   60.1095,       586,
   60.1297,       630,
   60.1498,       613,
     60.17,       550,
   60.1902,       585,
   60.2104,       608,
   60.2305,       649,
   60.2507,       621,
   60.2709,       632,
    60.291,       578,
   60.3112,       597,
   60.3314,       606,
   60.3515,       567,
   60.3717,       650,
   60.3919,       600,
    60.412,       621,
   60.4322,       587,
   60.4524,       627,
   60.4725,       610,
   60.4927,       612,
   60.5129,       609,
    60.533,       626,
   60.5532,       611,
   60.5734,       578,
   60.5936,       613,
   60.6137,       638,
   60.6339,       652,
   60.6541,       641,
   60.6742,       598,
   60.6944,       565,
   60.7146,       608,
   60.7347,       605,
   60.7549,       581,
   60.7751,       597,
   60.7952,       607,
   60.8154,       597,
   60.8356,       596,
   60.8557,       651,
   60.8759,       596,
   60.8961,       621,
   60.9163,       564,
   60.9364,       578,
   60.9566,       602,
   60.9768,       605,
   60.9969,       604,
   61.0171,       662,
   61.0373,       627,
   61.0574,       628,
   61.0776,       615,
   61.0978,       602,
   61.1179,       603,
   61.1381,       650,
   61.1583,       614,
   61.1784,       629,
   61.1986,       608,
   61.2188,       590,
   61.2389,       608,
   61.2591,       618,
   61.2793,       566,
   61.2995,       596,
   61.3196,       603,
   61.3398,       604,
     61.36,       596,
   61.3801,       579,
   61.4003,       597,
   61.4205,       616,
   61.4406,       577,
   61.4608,       616,
    61.481,       600,
   61.5011,       585,
   61.5213,       633,
   61.5415,       590,
   61.5616,       585,
   61.5818,       644,
    61.602,       608,
   61.6221,       595,
   61.6423,       616,
   61.6625,       612,
   61.6827,       595,
   61.7028,       578,
    61.723,       575,
   61.7432,       579,
   61.7633,       635,
   61.7835,       613,
   61.8037,       599,
   61.8238,       624,
    61.844,       580,
   61.8642,       592,
   61.8843,       621,
   61.9045,       639,
   61.9247,       610,
   61.9448,       656,
    61.965,       646,
   61.9852,       610,
   62.0054,       635,
   62.0255,       643,
   62.0457,       642,
   62.0659,       629,
    62.086,       576,
   62.1062,       596,
   62.1264,       590,
   62.1465,       588,
   62.1667,       606,
   62.1869,       618,
    62.207,       593,
   62.2272,       597,
   62.2474,       626,
   62.2675,       617,
   62.2877,       623,
   62.3079,       593,
    62.328,       598,
   62.3482,       604,
   62.3684,       604,
   62.3886,       617,
   62.4087,       664,
   62.4289,       592,
   62.4491,       580,
   62.4692,       602,
   62.4894,       576,
   62.5096,       616,
   62.5297,       602,
   62.5499,       608,
   62.5701,       571,
   62.5902,       657,
   62.6104,       607,
   62.6306,       554,
   62.6507,       605,
   62.6709,       582,
   62.6911,       626,
   62.7112,       542,
   62.7314,       583,
   62.7516,       574,
   62.7718,       595,
   62.7919,       585,
   62.8121,       553,
   62.8323,       607,
   62.8524,       609,
   62.8726,       558,
   62.8928,       595,
   62.9129,       600,
   62.9331,       584,
   62.9533,       585,
   62.9734,       570,
   62.9936,       640,
   63.0138,       602,
   63.0339,       619,
   63.0541,       598,
   63.0743,       619,
   63.0945,       605,
   63.1146,       602,
   63.1348,       589,
    63.155,       594,
   63.1751,       618,
   63.1953,       618,
   63.2155,       563,
   63.2356,       600,
   63.2558,       593,
    63.276,       588,
   63.2961,       609,
   63.3163,       632,
   63.3365,       609,
   63.3566,       571,
   63.3768,       606,
    63.397,       574,
   63.4171,       620,
   63.4373,       607,
   63.4575,       617,
   63.4777,       595,
   63.4978,       634,
    63.518,       577,
   63.5382,       606,
   63.5583,       576,
   63.5785,       604,
   63.5987,       614,
   63.6188,       602,
    63.639,       533,
   63.6592,       620,
   63.6793,       605,
   63.6995,       619,
   63.7197,       604,
   63.7398,       605,
     63.76,       595,
   63.7802,       626,
   63.8003,       643,
   63.8205,       625,
   63.8407,       618,
   63.8609,       545,
    63.881,       631,
   63.9012,       560,
   63.9214,       561,
   63.9415,       603,
   63.9617,       625,
   63.9819,       548,
    64.002,       576,
   64.0222,       582,
   64.0424,       591,
   64.0625,       585,
   64.0827,       588,
   64.1029,       587,
    64.123,       598,
   64.1432,       610,
   64.1634,       588,
   64.1836,       624,
   64.2037,       638,
   64.2239,       611,
   64.2441,       634,
   64.2642,       640,
   64.2844,       562,
   64.3046,       545,
   64.3247,       560,
   64.3449,       605,
   64.3651,       556,
   64.3852,       539,
   64.4054,       612,
   64.4256,       652,
   64.4457,       591,
   64.4659,       588,
   64.4861,       597,
   64.5062,       565,
   64.5264,       572,
   64.5466,       635,
   64.5668,       608,
   64.5869,       584,
   64.6071,       596,
   64.6273,       604,
   64.6474,       584,
   64.6676,       592,
   64.6878,       613,
   64.7079,       576,
   64.7281,       648,
   64.7483,       579,
   64.7684,       591,
   64.7886,       611,
   64.8088,       608,
   64.8289,       585,
   64.8491,       605,
   64.8693,       573,
   64.8894,       594,
   64.9096,       577,
   64.9298,       571,
     64.95,       600,
   64.9701,       574,
   64.9903,       615,
   65.0105,       566,
   65.0306,       603,
   65.0508,       592,
    65.071,       611,
   65.0911,       585,
   65.1113,       623,
   65.1315,       585,
   65.1516,       606,
   65.1718,       564,
    65.192,       592,
   65.2121,       610,
   65.2323,       568,
   65.2525,       602,
   65.2727,       558,
   65.2928,       615,
    65.313,       590,
   65.3332,       578,
   65.3533,       624,
   65.3735,       570,
   65.3937,       606,
   65.4138,       611,
    65.434,       582,
   65.4542,       575,
   65.4743,       563,
   65.4945,       568,
   65.5147,       580,
   65.5348,       566,
    65.555,       637,
   65.5752,       599,
   65.5953,       592,
   65.6155,       578,
   65.6357,       555,
   65.6559,       587,
    65.676,       615,
   65.6962,       567,
   65.7164,       628,
   65.7365,       628,
   65.7567,       567,
   65.7769,       589,
    65.797,       632,
   65.8172,       572,
   65.8374,       583,
   65.8575,       562,
   65.8777,       627,
   65.8979,       590,
    65.918,       603,
   65.9382,       609,
   65.9584,       600,
   65.9786,       607,
   65.9987,       626,
   66.0189,       606,
   66.0391,       600,
   66.0592,       583,
   66.0794,       608,
   66.0996,       587,
   66.1197,       609,
   66.1399,       598,
   66.1601,       611,
   66.1802,       602,
   66.2004,       635,
   66.2206,       609,
   66.2407,       650,
   66.2609,       619,
   66.2811,       585,
   66.3012,       593,
   66.3214,       618,
   66.3416,       585,
   66.3618,       615,
   66.3819,       595,
   66.4021,       648,
   66.4223,       571,
   66.4424,       566,
   66.4626,       601,
   66.4828,       611,
   66.5029,       585,
   66.5231,       573,
   66.5433,       622,
   66.5634,       596,
   66.5836,       583,
   66.6038,       592,
   66.6239,       613,
   66.6441,       585,
   66.6643,       582,
   66.6844,       594,
   66.7046,       577,
   66.7248,       563,
    66.745,       595,
   66.7651,       606,
   66.7853,       606,
   66.8055,       614,
   66.8256,       627,
   66.8458,       598,
    66.866,       592,
   66.8861,       599,
   66.9063,       594,
   66.9265,       557,
   66.9466,       565,
   66.9668,       599,
    66.987,       606,
   67.0071,       618,
   67.0273,       583,
   67.0475,       611,
   67.0677,       599,
   67.0878,       567,
    67.108,       626,
   67.1282,       594,
   67.1483,       594,
   67.1685,       592,
   67.1887,       605,
   67.2088,       551,
    67.229,       623,
   67.2492,       608,
   67.2693,       559,
   67.2895,       578,
   67.3097,       615,
   67.3298,       565,
     67.35,       585,
   67.3702,       595,
   67.3903,       620,
   67.4105,       603,
   67.4307,       581,
   67.4509,       610,
    67.471,       609,
   67.4912,       635,
   67.5114,       604,
   67.5315,       625,
   67.5517,       570,
   67.5719,       606,
    67.592,       638,
   67.6122,       583,
   67.6324,       608,
   67.6525,       589,
   67.6727,       583,
   67.6929,       580,
    67.713,       598,
   67.7332,       581,
   67.7534,       622,
   67.7735,       575,
   67.7937,       586,
   67.8139,       621,
   67.8341,       595,
   67.8542,       565,
   67.8744,       618,
   67.8946,       586,
   67.9147,       613,
   67.9349,       617,
   67.9551,       581,
   67.9752,       592,
   67.9954,       630,
   68.0156,       582,
   68.0357,       597,
   68.0559,       589,
   68.0761,       569,
   68.0962,       581,
   68.1164,       571,
   68.1366,       629,
   68.1568,       587,
   68.1769,       572,
   68.1971,       584,
   68.2173,       628,
   68.2374,       605,
   68.2576,       594,
   68.2778,       599,
   68.2979,       604,
   68.3181,       616,
   68.3383,       603,
   68.3584,       695,
   68.3786,       559,
   68.3988,       592,
   68.4189,       586,
   68.4391,       585,
   68.4593,       582,
   68.4794,       606,
   68.4996,       591,
   68.5198,       611,
     68.54,       608,
   68.5601,       602,
   68.5803,       629,
   68.6005,       590,
   68.6206,       608,
   68.6408,       626,
    68.661,       580,
   68.6811,       612,
   68.7013,       646,
   68.7215,       592,
   68.7416,       583,
   68.7618,       604,
    68.782,       558,
   68.8021,       627,
   68.8223,       592,
   68.8425,       596,
   68.8626,       618,
   68.8828,       601,
    68.903,       586,
   68.9232,       605,
   68.9433,       551,
   68.9635,       584,
   68.9837,       579,
   69.0038,       624,
    69.024,       590,
   69.0442,       583,
   69.0643,       568,
   69.0845,       581,
   69.1047,       614,
   69.1248,       557,
    69.145,       599,
   69.1652,       620,
   69.1853,       597,
   69.2055,       653,
   69.2257,       619,
   69.2459,       587,
    69.266,       590,
   69.2862,       634,
   69.3064,       589,
   69.3265,       598,
   69.3467,       561,
   69.3669,       615,
    69.387,       584,
   69.4072,       613,
   69.4274,       568,
   69.4475,       597,
   69.4677,       594,
   69.4879,       589,
    69.508,       592,
   69.5282,       544,
   69.5484,       575,
   69.5685,       609,
   69.5887,       609,
   69.6089,       611,
   69.6291,       613,
   69.6492,       663,
   69.6694,       549,
   69.6896,       611,
   69.7097,       590,
   69.7299,       599,
   69.7501,       628,
   69.7702,       605,
   69.7904,       588,
   69.8106,       589,
   69.8307,       573,
   69.8509,       632,
   69.8711,       632,
   69.8912,       601,
   69.9114,       615,
   69.9316,       547,
   69.9517,       576,
   69.9719,       618,
   69.9921,       604,
   70.0123,       610,
   70.0324,       599,
   70.0526,       628,
   70.0728,       607,
   70.0929,       603,
   70.1131,       641,
   70.1333,       570,
   70.1534,       613,
   70.1736,       558,
   70.1938,       624,
   70.2139,       604,
   70.2341,       627,
   70.2543,       580,
   70.2744,       613,
   70.2946,       613,
   70.3148,       584,
    70.335,       598,
   70.3551,       628,
   70.3753,       558,
   70.3955,       640,
   70.4156,       606,
   70.4358,       594,
    70.456,       617,
   70.4761,       626,
   70.4963,       602,
   70.5165,       620,
   70.5366,       601,
   70.5568,       600,
    70.577,       620,
   70.5971,       619,
   70.6173,       583,
   70.6375,       574,
   70.6576,       577,
   70.6778,       611,
    70.698,       561,
   70.7182,       609,
   70.7383,       570,
   70.7585,       607,
   70.7787,       582,
   70.7988,       588,
    70.819,       605,
   70.8392,       621,
   70.8593,       590,
   70.8795,       607,
   70.8997,       597,
   70.9198,       583,
     70.94,       578,
   70.9602,       578,
   70.9803,       580,
   71.0005,       615,
   71.0207,       581,
   71.0409,       580,
    71.061,       602,
   71.0812,       578,
   71.1014,       612,
   71.1215,       576,
   71.1417,       641,
   71.1619,       611,
    71.182,       594,
   71.2022,       670,
   71.2224,       578,
   71.2425,       602,
   71.2627,       594,
   71.2829,       603,
    71.303,       588,
   71.3232,       586,
   71.3434,       612,
   71.3635,       573,
   71.3837,       686,
   71.4039,       609,
   71.4241,       547,
   71.4442,       607,
   71.4644,       627,
   71.4846,       606,
   71.5047,       594,
   71.5249,       583,
   71.5451,       569,
   71.5652,       607,
   71.5854,       629,
   71.6056,       627,
   71.6257,       630,
   71.6459,       647,
   71.6661,       589,
   71.6862,       623,
   71.7064,       605,
   71.7266,       608,
   71.7467,       617,
   71.7669,       575,
   71.7871,       640,
   71.8073,       574,
   71.8274,       645,
   71.8476,       621,
   71.8678,       577,
   71.8879,       641,
   71.9081,       631,
   71.9283,       630,
   71.9484,       630,
   71.9686,       620,
   71.9888,       618,
   72.0089,       596,
   72.0291,       581,
   72.0493,       631,
   72.0694,       628,
   72.0896,       642,
   72.1098,       618,
     72.13,       647,
   72.1501,       617,
   72.1703,       603,
   72.1905,       562,
   72.2106,       576,
   72.2308,       589,
    72.251,       645,
   72.2711,       629,
   72.2913,       584,
   72.3115,       616,
   72.3316,       561,
   72.3518,       606,
    72.372,       601,
   72.3921,       621,
   72.4123,       602,
   72.4325,       611,
   72.4526,       595,
   72.4728,       640,
    72.493,       634,
   72.5132,       640,
   72.5333,       618,
   72.5535,       632,
   72.5737,       649,
   72.5938,       608,
    72.614,       607,
   72.6342,       640,
   72.6543,       576,
   72.6745,       641,
   72.6947,       622,
   72.7148,       604,
    72.735,       637,
   72.7552,       629,
   72.7753,       629,
   72.7955,       629,
   72.8157,       615,
   72.8358,       612,
    72.856,       665,
   72.8762,       661,
   72.8964,       614,
   72.9165,       602,
   72.9367,       631,
   72.9569,       639,
    72.977,       628,
   72.9972,       601,
   73.0174,       657,
   73.0375,       626,
   73.0577,       611,
   73.0779,       655,
    73.098,       609,
   73.1182,       624,
   73.1384,       607,
   73.1585,       619,
   73.1787,       647,
   73.1989,       612,
   73.2191,       649,
   73.2392,       665,
   73.2594,       661,
   73.2796,       635,
   73.2997,       650,
   73.3199,       627,
   73.3401,       664,
   73.3602,       611,
   73.3804,       623,
   73.4006,       691,
   73.4207,       672,
   73.4409,       672,
   73.4611,       651,
   73.4812,       636,
   73.5014,       669,
   73.5216,       649,
   73.5417,       666,
   73.5619,       651,
   73.5821,       669,
   73.6023,       665,
   73.6224,       645,
   73.6426,       667,
   73.6628,       719,
   73.6829,       712,
   73.7031,       792,
   73.7233,       811,
   73.7434,       823,
   73.7636,       817,
   73.7838,       834,
   73.8039,       831,
   73.8241,       829,
   73.8443,       828,
   73.8644,       847,
   73.8846,       947,
   73.9048,       934,
   73.9249,      1059,
   73.9451,      1033,
   73.9653,      1183,
   73.9855,      1301,
   74.0056,      1594,
   74.0258,      2135,
    74.046,      2968,
   74.0661,      4929,
   74.0863,      7937,
   74.1065,     11774,
   74.1266,     12444,
   74.1468,      9091,
    74.167,      5687,
   74.1871,      3477,
   74.2073,      2579,
   74.2275,      2155,
   74.2476,      2100,
   74.2678,      2640,
    74.288,      3569,
   74.3082,      5193,
   74.3283,      6494,
   74.3485,      6131,
   74.3687,      4469,
   74.3888,      2951,
    74.409,      1965,
   74.4292,      1463,
   74.4493,      1206,
   74.4695,      1057,
   74.4897,       960,
   74.5098,       908,
     74.53,       878,
   74.5502,       821,
   74.5703,       782,
   74.5905,       777,
   74.6107,       782,
   74.6308,       756,
    74.651,       718,
   74.6712,       731,
   74.6914,       669,
   74.7115,       671,
   74.7317,       699,
   74.7519,       690,
    74.772,       669,
   74.7922,       687,
   74.8124,       676,
   74.8325,       647,
   74.8527,       657,
   74.8729,       629,
    74.893,       628,
   74.9132,       683,
   74.9334,       600,
   74.9535,       637,
   74.9737,       607,
   74.9939,       668,
    75.014,       628,
   75.0342,       662,
   75.0544,       614,
   75.0746,       683,
   75.0947,       677,
   75.1149,       667,
   75.1351,       637,
   75.1552,       588,
   75.1754,       647,
   75.1956,       665,
   75.2157,       617,
   75.2359,       591,
   75.2561,       661,
   75.2762,       642,
   75.2964,       627,
   75.3166,       576,
   75.3367,       608,
   75.3569,       644,
   75.3771,       618,
   75.3973,       652,
   75.4174,       643,
   75.4376,       608,
   75.4578,       657,
   75.4779,       582,
   75.4981,       600,
   75.5183,       615,
   75.5384,       616,
   75.5586,       625,
   75.5788,       621,
   75.5989,       629,
   75.6191,       662,
   75.6393,       614,
   75.6594,       570,
   75.6796,       582,
   75.6998,       608,
   75.7199,       621,
   75.7401,       607,
   75.7603,       611,
   75.7805,       626,
   75.8006,       614,
   75.8208,       642,
    75.841,       625,
   75.8611,       660,
   75.8813,       581,
   75.9015,       599,
   75.9216,       608,
   75.9418,       614,
    75.962,       600,
   75.9821,       629,
   76.0023,       630,
   76.0225,       579,
   76.0426,       618,
   76.0628,       605,
    76.083,       604,
   76.1032,       619,
   76.1233,       593,
   76.1435,       585,
   76.1637,       607,
   76.1838,       623,
    76.204,       614,
   76.2242,       615,
   76.2443,       589,
   76.2645,       653,
   76.2847,       607,
   76.3048,       605,
    76.325,       598,
   76.3452,       635,
   76.3653,       622,
   76.3855,       625,
   76.4057,       619,
   76.4258,       603,
    76.446,       610,
   76.4662,       632,
   76.4864,       616,
   76.5065,       584,
   76.5267,       638,
   76.5469,       581,
    76.567,       617,
   76.5872,       586,
   76.6074,       588,
   76.6275,       593,
   76.6477,       602,
   76.6679,       608,
    76.688,       589,
   76.7082,       587,
   76.7284,       591,
   76.7485,       600,
   76.7687,       583,
   76.7889,       623,
    76.809,       566,
   76.8292,       573,
   76.8494,       636,
   76.8696,       587,
   76.8897,       613,
   76.9099,       605,
   76.9301,       615,
   76.9502,       595,
   76.9704,       569,
   76.9906,       623,
   77.0107,       574,
   77.0309,       619,
   77.0511,       623,
   77.0712,       588,
   77.0914,       589,
   77.1116,       629,
   77.1317,       619,
   77.1519,       571,
   77.1721,       593,
   77.1923,       639,
   77.2124,       604,
   77.2326,       640,
   77.2528,       594,
   77.2729,       571,
   77.2931,       630,
   77.3133,       630,
   77.3334,       616,
   77.3536,       635,
   77.3738,       586,
   77.3939,       636,
   77.4141,       619,
   77.4343,       625,
   77.4544,       630,
   77.4746,       626,
   77.4948,       603,
   77.5149,       622,
   77.5351,       618,
   77.5553,       635,
   77.5755,       609,
   77.5956,       607,
   77.6158,       656,
    77.636,       604,
   77.6561,       598,
   77.6763,       598,
   77.6965,       587,
   77.7166,       602,
   77.7368,       601,
    77.757,       613,
   77.7771,       606,
   77.7973,       629,
   77.8175,       611,
   77.8376,       619,
   77.8578,       581,
    77.878,       568,
   77.8981,       618,
   77.9183,       564,
   77.9385,       601,
   77.9587,       594,
   77.9788,       644,
    77.999,       603,
