;RAW4.00
[RawHeader]
Date=11/25/2025
EstimatedTotalTime=426.6
FurtherDQLReading=0
HardwareIndicator=65519
MeasuredTotalTime=4.29521
MeasurementFlag=1
NumberOfMeasuredRanges=1
NumberOfRanges=1
Time=19:38:28

[VarInfo]
Type=USER
Flags=0
Value=Lab Manager

[VarInfo]
Type=SAMPLEID
Flags=0
Value=Commander Sample ID

[VarInfo]
Type=COMMENT
Flags=0
Value=

[VarInfo]
Type=UTF
Flags=0
Value=

[VarInfo]
Type=CREATOR
Flags=0
Value=V5Converter

[VarInfo]
Type=CREATOR_VERSION
Flags=0
Value=4.4.16.0

[HardwareConfiguration]
AbsorptionFactor=9999
ActivateAbsorber=0
Alpha1=1.5406
Alpha2=1.54439
AlphaAverage=1.54184
AlphaRatio=0.5
Analyzer=0
Anode=Cu
AntiScatteringSlit=9999
BeamOpticsFlags=0
Beta=1.39222
BetaRelativeIntensity=0
DeactivateAbsorber=0
DetectorSlit=9999
DivergenceSlit=9999
GoniometerControl=0
GoniometerDiameter=282
GoniometerModel=256
GoniometerStage=7
Monochromator=0
NearSampleSlit=9999
PrimarySollerSlit=9999
SampleChanger=0
SecondSollerSlit=9999
SynchronousAxis=0
ThinFilmAttachment=9999
WaveUnit=A

[RangeHeader]
ActuallyUsedLambda=1.54184
AdditionalDetectorMask=257
DataRecordLength=4
DelayTime=0
DisplayPlaneNumber=0
EstimatedScanTime=427
ExtraParametersMask=0
GeneratorCurrent=10
GeneratorVoltage=30
Increment=0.0201685
Increment3=0
NumberOfCompletedData=1885
NumberOfCounts=1
NumberOfDetectors=0
NumberOfDrives=3
NumberOfEncoderDrives=0
NumberOfMeasuredData=1885
NumberOfVaryingParameters=0
RangeStartTime=0
RotationSpeed=0
ScanMode=1
ScanType=Locked Coupled
SimulatedMeasConditions=0
SlitChangerIn=0
SmootingWidth=0
Start=40.0015
Steps=1885
SynchronousRotation=0
Time=33

[VarInfo]
Type=PSD_DISCRIM
Flags=0
Value=0.11;0.5

[VarInfo]
Type=OPTICS_V5
Flags=0
Value=H4sIAAAAAAAEAO1d63KjOhJ+Fda/zqmtBIPtXKaITzm2J+OaOHbFTnKmtrZcBORYZzC4AOey//d99hl2X2x1QViIS8C3JBN+TCaodWm6+2vUUkfS/nieW9IjcD3o2GcV5bBakYBtOCa0H84qS396oBxV/mhqF44NnTnwgdt25gvHBrbf0X1dQq1t78uzB88qM99ffJHlp6enw6faoeM+yGq1qsh/9i9HxgzM9QNoe75uG6AStjJfb1WRbqEH7y1wpc/BWWXFR0joAM9w4cInL/Bj4UHLsSW+3oXrLBc9NBZ6t3Pgojcb3P8FDH+o+7OzitwBj9AAMt+CrxUfl1Lblu55QRehTORzoM8XqLDt2L4ObeBy/coBc6yHluEvdYtxoR6o1ePT02O5h8TkLue4tzhrTW2EZGjqqBswQr3oFvyXjl+9OdUtD2hyGln7c259hcAyrwHqHhq4EDFpA/KbJ8lNjfKD1ToCFipvdm00JDA1OUbR6Btwou9Ab2HpL824AjQ5tXK8m+bF4OrHhPzodEft64TGrBVWDOsoPhpP1bBWhrxWvISy1r0hIUP+4r8skMLHrm78xG8sGODQhXPdfSHkZBMMakgD9GxISBvSeHkPOIFIQeOidilHx44baRI9r5mSRmyEDSxUYBJZ3blu/xy4JnCvAfYzAL0wsdX3b8s5NVnMwIfj6+8T9KPV/l7IxHm5Jhp5z0OvBh9BE+kGCS98DAk920dCZMIVSikeHA9SJulgmhwp1bAq2ZMXfZT4B2LSAxc+QFu3ogSlwl6OWi7Ssb/0moPwnSLFGmsYPPedJdIj0qJQrgWE0MJ5JCOdEXICmjFtjmnJUA7J0tRxpRHQLUBtYA3AytxYcejGiMm4JZa46kmmLG0LrhEWBa3xcus++8A2MZDfDYZpCWdMkQKtj5nwHfcltGVFk+OFGseMJxH2qHoYWND7cnJosmJN5ku1uCnh1+H65qyTKx3Y545jAR1NEG5s6BPpdiDSG56bXcI59IlYwiKvWdVk7knrgKm+tPxb3VoCboigVyQ96CPXTshnFewlKri/oQta5l9LD8GnYEuZYx67mbHTJoqe6ZblPK0cjVCOarZnwPgJzFUVVqC1ESPOHKsWvx33pNH5Zl7erhEyxkg2xVq1lr7TdoHug6HrLIDrvzAWEyiR9/eIRfdMhLKr5fweuE21rslCEdaQRS08UPF//xMyUSUc9B0TNG8Quqbos4xMnTwz90Y+PzEHluy7tuWt5HgP/ND5vNXOHBXjLvaN2aNbYuh5A79Evm3IJvErCL6JJ23LP418rD3OPSHRTOHDEjnla/gw85sIdabECnU0BoKwUKWYS+vrz5fAfvBnTbXRwKJhj2nOjrJISkNktZevObqMVm/q5DL4SnFwGS02cm5pFninPwKqkpa1mOmKYIUieVuWOJh2nCVqyWzxf//ehzWm2Nxw9uJBQ7dIeQJnTA/KYaNePXrNFtfo7ca2MPfItOjcf/WMZelYS+paugfVBtErK9H60Ibz5bx5oBwenx4fndaUWv3kSK0pjePu32vVE4S4oAZGIvklvWZQ4W0Rs4b0UpC0Rk/7QJiajTD10yOsXjvdJsRYdyXGNhLfFkDGuto1yh6Bqz+IoV6M/ulxppzUt4kz1l2Js43EtwWcsa52jLNz4OupIMPET46w2qmqqttD2Kq7EmEbiW9jhK262jHCrvGaRirECHVXGHuvCFutth02NsJWrKMSVWsKbh08xTrZCZK+OsbSG7gQ2D5ZHRSgJJK3tspG1g4H057tH9XfH6CibEVXr/OjKbkXhfRCBYDfqOeDOWLs0nmABl3VvJn0rm5bl73OpP2tN9TkFYkJfAye/WbPftQtiMQzg4uVjCJaIvW07+CFjI1lEf6uyTEWsnm67F2lsnIJbSARW0kbWtlk6OEgY+yhA20/e3B1k8GZLoaD0auqCHeKD6S58wgk35HmwJjpNrYKCTmTxd/SeKxl8/ienF2WXefzdFk9bOTm6N5Lz546UqiqhAVciZbr3FOQY3BWIVUkVBrdJr+ZtC6H31rRcrGRhEeyyEjkXXKxo0bYURPZUVPYUbPYUQuzEywL8PxEyoQBQloib5PW7UUWe0HrokySmCrg8D78PeybkkWGzrvjVjIvuH4+FiIbUQEDqBXeyxN46LJSkY3uZbffvRqnSMV2TCAFbaXVSDlkQmfBvNq4EkHsASVZZdetcW+QpTTSOp+8YlOLgL9pYnk4ToQicvl10J4MrpMZJONJkeZyfMe6Ed+xvgA2skTfcYU8TFacvPmcsQFLZ8dr7r82tXQiP3O7dSw/voYXlO4q5vl5u6WEjcypLxqFfRNqVSHyCL4FKaFHctihVBMCjFp1f7FErbF+MBEXRsEvZLo55TW19tJ1sT+LmlpQuitTm7f2YWpolHD6sQ1TaySFsh/E0uKy2LulDZ0nkgHOmxQp25WV3aUEnW+xcHMnRJr5lluqhymm+EkWW+4491hde7Ul3ssWbV9+7YtfJA0UTQyNGXBfyVbbPA8ud74bklUw60j9YgWfilQ/I4dzraYmBmuZ2QhiKJW9qxqLdLI3h6IxR/YytzAXT1vD42MIIXVJnC4nR8cylyaJ7OZRhxZeJcCPHu2eWH2ZQFkmUJYJlGUCZZlA+fE2xcsEyvezJV4mUP6aCCsTKN8TxsoEyl8VZ2UC5XvCWZlA+ashrEygfE8IKxMoywTKMoGyTKAsEyjLBMoygbJMoCwTKMsEyjKBskygLBMoywTKMoGyTKAsEyjLBMoygbJMoHzr+KNMoCwTKD9tAiXLkUS/iumT7KzT+Cmg4tm7GScqd+cL/4UkG4arGcVOT+72h4PRhP4scnoyGTg0xcTzk2U+BzLzcGMl7XBjde+HGw8WbefceR5MR45lATfhiGNKyDjkmKsg/WbotmTQQ8ElNJZEifQE7N/XgX9k+LhXSSBnuYaE6hunwkb7FPSZfOxxRGTIPPKL8PePe2KymphYK0bAR+scevtxXAin6Q2diJrmRGpv50S+wmdgEkNlcw/RmVjQz3IliCz1U2CAaRv4kdXICV5EJGb6ELHy5h6E61FQZYr/YA2o98gntQ/sOmq5XMfxeudlE7OmVzSsTJpYMhZe0hcRy1SR/jGf/zPDjH/DR/7fA2QfErQ9hAVgol98R9I5hWWaMq5mhBds4KeJUp0oaQYcIb5mwIVtN52ZmPP5qH/5US30lx930PRnYm4HLtvZktP8/WxBxzgL44DNsuvjPeVdZqh+7nWGuODWWWeI97KTtI5vABumgB1a+LnBszXslNBZz+i3gpzt3wSirjOzGenzhQXuZgBYY/QC/KUgIkkjH65UJ0ChmfamMj+F+lCxGJtFbxiJ1dIisfpGkRjhMR6HvT9h3thLD5hkeHHgLInKwm1g17oJl16CldWVYB+fXrg3mE494KdZfesZevz3Iay2B1ceYybnbh1ywVU1LSlVPTypn6qNRkNN8LvHjcOTRv24dqQqvK8VhNAM7mETbitc+w7DEUCRgJl9i2FYh7v9roNCXwNnMmzhLkORh4SYKLFGsfsMwz42ifVFRj70nYaF9FrM/4zwzYaj4jcbRuW787sNw+F2cbvhyRss3uHlOks3wMyxzMQtgMsX+xm8pBxzcfnj6s/ujy654bCjSsOZ7olX4OYEsRyOEwezQMpa3mDWKOO8X3k4Wj2jProvYAvX6KYzLmrzl7v28CTPUlxNiU9Yi8wL0ecUu0XdWrmWfniNJk2pxn6HJHazGl4xZ9PpjyfkXwFHw4ba6R6gstmscZebgP09bgIKCIswkLYN2N/zNmAmj6JSs3YC+59rJ1Cp53Ii1c+wFVhGSkUjpbRAqXF4dHrSUJRqPWmBqqEcHldP68dqfQeB0sontAHGieA9hcKI4+SmzLSadMAw70kjnLfkkW8dVkPLMIDnOS4E3hoRE+Mi7j2jlLwRUvyl1/ekrIcPHRqtqcpiLudicNWekB9FHA7lZ+eh0Ri4qHQnkdHp3mdFwxkkShPAfO0EGXBRYgTUqKlErdE1Wb0CGJXZGHSdNqGDKCsJ1TJnP6vqMuJUZpxuDuAUxgVFpsREEgUYMFu+rxszPNBZ5WDPRwluc5pzmitr4SQ+y+l5TBQhKMMCjfMcZLfIWj48ALPjYkzSv8ZE3eHvWs9sIu2S3oNHTCEVRwtgwGnwt6KsUpyC4BLvvcgEK46DYs5u+K03mpAfRZxdFKHbnGBVi0yvQisOP5lEYfRDEPwf22IqXU7pckqXI7qcECvsd+8VLsZPznhGTjB6jZVIzZz8ZA+dc9yig6ZEJvFifFQxXo8YAd9H0PIkfi6GHAXNPKxILbzB7vVR6AbplI5NtLGOuVT/5i2e1Rn4EFu+VFtBkewhB6uqmiyUa3yqI/WAkWUTj/6JxSqYYK6D6Pv/u9RXv2COAAA=

[PSD]
ActualTwoTheta=9999
FirstUsedChannel=0
FixedPSD=0
PSDOpening=4.99171
PSDType=5

[Drive]
DriveFlags=1
DriveName=2Theta
DriveNumber=2
DriveOffset=0
OffsetIndex=0
OscillationAmplitude=0
OscillationSpeed=0
StartPosition=40.0015

[Drive]
DriveFlags=1
DriveName=Theta
DriveNumber=1
DriveOffset=0
OffsetIndex=0
OscillationAmplitude=0
OscillationSpeed=0
StartPosition=20.0007

[Drive]
DriveFlags=1
DriveName=Phi
DriveNumber=3
DriveOffset=0
OffsetIndex=0
OscillationAmplitude=0
OscillationSpeed=0
StartPosition=0

[Data]
     Angle,       PSD,
   40.0015,       673,
   40.0217,       603,
   40.0418,       650,
    40.062,       657,
   40.0822,       632,
   40.1023,       651,
   40.1225,       647,
   40.1427,       650,
   40.1628,       638,
    40.183,       649,
   40.2032,       580,
   40.2233,       643,
   40.2435,       635,
   40.2637,       626,
   40.2838,       611,
    40.304,       663,
   40.3242,       656,
   40.3444,       611,
   40.3645,       626,
   40.3847,       634,
   40.4049,       637,
    40.425,       658,
   40.4452,       650,
   40.4654,       597,
   40.4855,       614,
   40.5057,       647,
   40.5259,       616,
    40.546,       640,
   40.5662,       641,
   40.5864,       622,
   40.6065,       624,
   40.6267,       687,
   40.6469,       693,
   40.6671,       648,
   40.6872,       674,
   40.7074,       685,
   40.7276,       621,
   40.7477,       671,
   40.7679,       672,
   40.7881,       624,
   40.8082,       674,
   40.8284,       679,
   40.8486,       696,
   40.8687,       686,
   40.8889,       612,
   40.9091,       702,
   40.9292,       654,
   40.9494,       671,
   40.9696,       651,
   40.9897,       680,
   41.0099,       655,
   41.0301,       646,
   41.0503,       691,
   41.0704,       640,
   41.0906,       661,
   41.1108,       699,
   41.1309,       647,
   41.1511,       733,
   41.1713,       694,
   41.1914,       683,
   41.2116,       704,
   41.2318,       705,
   41.2519,       707,
   41.2721,       678,
   41.2923,       722,
   41.3124,       630,
   41.3326,       686,
   41.3528,       734,
   41.3729,       665,
   41.3931,       667,
   41.4133,       689,
   41.4335,       680,
   41.4536,       733,
   41.4738,       713,
    41.494,       734,
   41.5141,       733,
   41.5343,       707,
   41.5545,       711,
   41.5746,       751,
   41.5948,       682,
    41.615,       686,
   41.6351,       654,
   41.6553,       712,
   41.6755,       731,
   41.6956,       755,
   41.7158,       701,
    41.736,       746,
   41.7562,       757,
   41.7763,       744,
   41.7965,       791,
   41.8167,       804,
   41.8368,       778,
    41.857,       777,
   41.8772,       793,
   41.8973,       809,
   41.9175,       788,
   41.9377,       808,
   41.9578,       814,
    41.978,       785,
   41.9982,       790,
   42.0183,       819,
   42.0385,       790,
   42.0587,       861,
   42.0788,       861,
    42.099,       911,
   42.1192,       846,
   42.1394,       869,
   42.1595,       884,
   42.1797,       871,
   42.1999,       891,
     42.22,       879,
   42.2402,       847,
   42.2604,       925,
   42.2805,       883,
   42.3007,       889,
   42.3209,       930,
    42.341,       943,
   42.3612,       924,
   42.3814,       960,
   42.4015,       976,
   42.4217,       974,
   42.4419,      1007,
    42.462,       968,
   42.4822,       957,
   42.5024,      1021,
   42.5226,      1026,
   42.5427,      1040,
   42.5629,      1040,
   42.5831,      1041,
   42.6032,      1091,
   42.6234,      1105,
   42.6436,      1175,
   42.6637,      1125,
   42.6839,      1237,
   42.7041,      1266,
   42.7242,      1305,
   42.7444,      1360,
   42.7646,      1405,
   42.7847,      1425,
   42.8049,      1527,
   42.8251,      1548,
   42.8453,      1678,
   42.8654,      1697,
   42.8856,      1834,
   42.9058,      1977,
   42.9259,      2076,
   42.9461,      2205,
   42.9663,      2534,
   42.9864,      2664,
   43.0066,      2892,
   43.0268,      3052,
   43.0469,      3498,
   43.0671,      4020,
   43.0873,      4424,
   43.1074,      5052,
   43.1276,      5743,
   43.1478,      6476,
   43.1679,      7828,
   43.1881,      8884,
   43.2083,     10527,
   43.2285,     11957,
   43.2486,     13975,
   43.2688,     14856,
    43.289,     15734,
   43.3091,     15924,
   43.3293,     15837,
   43.3495,     15244,
   43.3696,     14581,
   43.3898,     13715,
     43.41,     12935,
   43.4301,     11673,
   43.4503,     10248,
   43.4705,      9003,
   43.4906,      8050,
   43.5108,      6992,
    43.531,      6061,
   43.5511,      5286,
   43.5713,      4795,
   43.5915,      4137,
   43.6117,      3860,
   43.6318,      3259,
    43.652,      3105,
   43.6722,      2779,
   43.6923,      2502,
   43.7125,      2313,
   43.7327,      2124,
   43.7528,      2013,
    43.773,      1975,
   43.7932,      1844,
   43.8133,      1764,
   43.8335,      1677,
   43.8537,      1543,
   43.8738,      1528,
    43.894,      1460,
   43.9142,      1400,
   43.9344,      1343,
   43.9545,      1343,
   43.9747,      1308,
   43.9949,      1260,
    44.015,      1251,
   44.0352,      1174,
   44.0554,      1133,
   44.0755,      1097,
   44.0957,      1106,
   44.1159,      1048,
    44.136,      1063,
   44.1562,      1071,
   44.1764,      1021,
   44.1965,       994,
   44.2167,      1018,
   44.2369,       952,
    44.257,      1011,
   44.2772,       978,
   44.2974,       983,
   44.3176,       990,
   44.3377,       947,
   44.3579,       922,
   44.3781,       932,
   44.3982,       871,
   44.4184,       908,
   44.4386,       887,
   44.4587,       936,
   44.4789,       869,
   44.4991,       869,
   44.5192,       892,
   44.5394,       905,
   44.5596,       857,
   44.5797,       815,
   44.5999,       877,
   44.6201,       849,
   44.6402,       831,
   44.6604,       816,
   44.6806,       855,
   44.7008,       876,
   44.7209,       790,
   44.7411,       843,
   44.7613,       867,
   44.7814,       784,
   44.8016,       842,
   44.8218,       857,
   44.8419,       849,
   44.8621,       864,
   44.8823,       807,
   44.9024,       800,
   44.9226,       836,
   44.9428,       814,
   44.9629,       806,
   44.9831,       788,
   45.0033,       832,
   45.0235,       809,
   45.0436,       810,
   45.0638,       800,
    45.084,       781,
   45.1041,       787,
   45.1243,       759,
   45.1445,       764,
   45.1646,       791,
   45.1848,       762,
    45.205,       806,
   45.2251,       835,
   45.2453,       826,
   45.2655,       724,
   45.2856,       773,
   45.3058,       745,
    45.326,       757,
   45.3461,       726,
   45.3663,       770,
   45.3865,       776,
   45.4067,       721,
   45.4268,       752,
    45.447,       733,
   45.4672,       796,
   45.4873,       782,
   45.5075,       747,
   45.5277,       767,
   45.5478,       747,
    45.568,       728,
   45.5882,       815,
   45.6083,       739,
   45.6285,       783,
   45.6487,       715,
   45.6688,       788,
    45.689,       711,
   45.7092,       735,
   45.7294,       744,
   45.7495,       736,
   45.7697,       776,
   45.7899,       760,
     45.81,       661,
   45.8302,       745,
   45.8504,       727,
   45.8705,       743,
   45.8907,       722,
   45.9109,       742,
    45.931,       747,
   45.9512,       707,
   45.9714,       736,
   45.9915,       700,
   46.0117,       715,
   46.0319,       699,
    46.052,       717,
   46.0722,       760,
   46.0924,       748,
   46.1126,       783,
   46.1327,       665,
   46.1529,       748,
   46.1731,       776,
   46.1932,       729,
   46.2134,       702,
   46.2336,       693,
   46.2537,       731,
   46.2739,       710,
   46.2941,       654,
   46.3142,       806,
   46.3344,       708,
   46.3546,       747,
   46.3747,       727,
   46.3949,       721,
   46.4151,       728,
   46.4352,       722,
   46.4554,       689,
   46.4756,       720,
   46.4958,       717,
   46.5159,       722,
   46.5361,       749,
   46.5563,       767,
   46.5764,       707,
   46.5966,       776,
   46.6168,       718,
   46.6369,       749,
   46.6571,       737,
   46.6773,       707,
   46.6974,       696,
   46.7176,       753,
   46.7378,       718,
   46.7579,       704,
   46.7781,       729,
   46.7983,       758,
   46.8185,       759,
   46.8386,       708,
   46.8588,       743,
    46.879,       718,
   46.8991,       730,
   46.9193,       672,
   46.9395,       770,
   46.9596,       696,
   46.9798,       685,
        47,       684,
   47.0201,       715,
   47.0403,       722,
   47.0605,       783,
   47.0806,       685,
   47.1008,       710,
    47.121,       749,
   47.1411,       707,
   47.1613,       704,
   47.1815,       666,
   47.2017,       731,
   47.2218,       689,
    47.242,       743,
   47.2622,       700,
   47.2823,       770,
   47.3025,       679,
   47.3227,       731,
   47.3428,       709,
    47.363,       692,
   47.3832,       697,
   47.4033,       721,
   47.4235,       724,
   47.4437,       717,
   47.4638,       723,
    47.484,       700,
   47.5042,       676,
   47.5243,       704,
   47.5445,       721,
   47.5647,       734,
   47.5849,       693,
    47.605,       709,
   47.6252,       741,
   47.6454,       711,
   47.6655,       706,
   47.6857,       713,
   47.7059,       726,
    47.726,       791,
   47.7462,       738,
   47.7664,       728,
   47.7865,       673,
   47.8067,       703,
   47.8269,       720,
    47.847,       714,
   47.8672,       701,
   47.8874,       709,
   47.9076,       673,
   47.9277,       750,
   47.9479,       666,
   47.9681,       664,
   47.9882,       723,
   48.0084,       704,
   48.0286,       749,
   48.0487,       760,
   48.0689,       771,
   48.0891,       686,
   48.1092,       742,
   48.1294,       726,
   48.1496,       696,
   48.1697,       759,
   48.1899,       708,
   48.2101,       713,
   48.2302,       687,
   48.2504,       740,
   48.2706,       728,
   48.2908,       751,
   48.3109,       739,
   48.3311,       722,
   48.3513,       750,
   48.3714,       704,
   48.3916,       694,
   48.4118,       696,
   48.4319,       716,
   48.4521,       784,
   48.4723,       754,
   48.4924,       740,
   48.5126,       781,
   48.5328,       709,
   48.5529,       687,
   48.5731,       735,
   48.5933,       778,
   48.6134,       778,
   48.6336,       728,
   48.6538,       764,
    48.674,       720,
   48.6941,       803,
   48.7143,       759,
   48.7345,       772,
   48.7546,       777,
   48.7748,       798,
    48.795,       757,
   48.8151,       803,
   48.8353,       765,
   48.8555,       726,
   48.8756,       771,
   48.8958,       733,
    48.916,       744,
   48.9361,       771,
   48.9563,       783,
   48.9765,       774,
   48.9967,       738,
   49.0168,       808,
    49.037,       795,
   49.0572,       789,
   49.0773,       796,
   49.0975,       819,
   49.1177,       778,
   49.1378,       791,
    49.158,       817,
   49.1782,       784,
   49.1983,       804,
   49.2185,       767,
   49.2387,       789,
   49.2588,       813,
    49.279,       848,
   49.2992,       797,
   49.3193,       842,
   49.3395,       842,
   49.3597,       815,
   49.3799,       869,
      49.4,       837,
   49.4202,       849,
   49.4404,       803,
   49.4605,       854,
   49.4807,       877,
   49.5009,       889,
    49.521,       937,
   49.5412,       930,
   49.5614,       908,
   49.5815,       945,
   49.6017,       948,
   49.6219,       977,
    49.642,       973,
   49.6622,      1047,
   49.6824,      1000,
   49.7025,      1038,
   49.7227,      1047,
   49.7429,      1094,
   49.7631,      1077,
   49.7832,      1161,
   49.8034,      1136,
   49.8236,      1195,
   49.8437,      1214,
   49.8639,      1272,
   49.8841,      1314,
   49.9042,      1349,
   49.9244,      1401,
   49.9446,      1413,
   49.9647,      1568,
   49.9849,      1564,
   50.0051,      1664,
   50.0252,      1742,
   50.0454,      1677,
   50.0656,      1863,
   50.0858,      1977,
   50.1059,      2078,
   50.1261,      2176,
   50.1463,      2310,
   50.1664,      2428,
   50.1866,      2591,
   50.2068,      2733,
   50.2269,      2828,
   50.2471,      3057,
   50.2673,      3079,
   50.2874,      3344,
   50.3076,      3379,
   50.3278,      3599,
   50.3479,      3652,
   50.3681,      3781,
   50.3883,      3836,
   50.4084,      4009,
   50.4286,      3935,
   50.4488,      3967,
    50.469,      3955,
   50.4891,      3753,
   50.5093,      3803,
   50.5295,      3591,
   50.5496,      3567,
   50.5698,      3489,
     50.59,      3392,
   50.6101,      3225,
   50.6303,      3094,
   50.6505,      2869,
   50.6706,      2808,
   50.6908,      2565,
    50.711,      2415,
   50.7311,      2318,
   50.7513,      2236,
   50.7715,      2093,
   50.7917,      1955,
   50.8118,      1907,
    50.832,      1804,
   50.8522,      1715,
   50.8723,      1661,
   50.8925,      1509,
   50.9127,      1485,
   50.9328,      1449,
    50.953,      1394,
   50.9732,      1337,
   50.9933,      1233,
   51.0135,      1152,
   51.0337,      1167,
   51.0538,      1156,
    51.074,      1089,
   51.0942,      1056,
   51.1143,      1047,
   51.1345,      1022,
   51.1547,      1009,
   51.1749,      1009,
    51.195,      1026,
   51.2152,       924,
   51.2354,       826,
   51.2555,       898,
   51.2757,       927,
   51.2959,       916,
    51.316,       900,
   51.3362,       870,
   51.3564,       828,
   51.3765,       838,
   51.3967,       826,
   51.4169,       755,
    51.437,       807,
   51.4572,       821,
   51.4774,       802,
   51.4975,       752,
   51.5177,       739,
   51.5379,       819,
   51.5581,       790,
   51.5782,       754,
   51.5984,       792,
   51.6186,       758,
   51.6387,       749,
   51.6589,       767,
   51.6791,       775,
   51.6992,       752,
   51.7194,       731,
   51.7396,       716,
   51.7597,       723,
   51.7799,       719,
   51.8001,       705,
   51.8202,       747,
   51.8404,       745,
   51.8606,       748,
   51.8808,       712,
   51.9009,       727,
   51.9211,       660,
   51.9413,       676,
   51.9614,       709,
   51.9816,       739,
   52.0018,       713,
   52.0219,       655,
   52.0421,       712,
   52.0623,       693,
   52.0824,       709,
   52.1026,       695,
   52.1228,       700,
   52.1429,       668,
   52.1631,       709,
   52.1833,       704,
   52.2034,       730,
   52.2236,       692,
   52.2438,       695,
    52.264,       683,
   52.2841,       658,
   52.3043,       664,
   52.3245,       702,
   52.3446,       704,
   52.3648,       671,
    52.385,       683,
   52.4051,       659,
   52.4253,       667,
   52.4455,       684,
   52.4656,       682,
   52.4858,       655,
    52.506,       781,
   52.5261,       691,
   52.5463,       697,
   52.5665,       675,
   52.5866,       668,
   52.6068,       673,
    52.627,       686,
   52.6472,       669,
   52.6673,       669,
   52.6875,       681,
   52.7077,       647,
   52.7278,       663,
    52.748,       681,
   52.7682,       693,
   52.7883,       685,
   52.8085,       677,
   52.8287,       687,
   52.8488,       641,
    52.869,       683,
   52.8892,       671,
   52.9093,       657,
   52.9295,       667,
   52.9497,       638,
   52.9699,       673,
     52.99,       722,
   53.0102,       653,
   53.0304,       652,
   53.0505,       622,
   53.0707,       633,
   53.0909,       722,
    53.111,       646,
   53.1312,       668,
   53.1514,       652,
   53.1715,       659,
   53.1917,       693,
   53.2119,       655,
    53.232,       646,
   53.2522,       635,
   53.2724,       667,
   53.2925,       655,
   53.3127,       627,
   53.3329,       672,
   53.3531,       654,
   53.3732,       671,
   53.3934,       689,
   53.4136,       652,
   53.4337,       646,
   53.4539,       652,
   53.4741,       623,
   53.4942,       686,
   53.5144,       631,
   53.5346,       712,
   53.5547,       620,
   53.5749,       605,
   53.5951,       675,
   53.6152,       640,
   53.6354,       636,
   53.6556,       655,
   53.6757,       624,
   53.6959,       645,
   53.7161,       703,
   53.7363,       649,
   53.7564,       660,
   53.7766,       617,
   53.7968,       681,
   53.8169,       663,
   53.8371,       654,
   53.8573,       646,
   53.8774,       632,
   53.8976,       591,
   53.9178,       651,
   53.9379,       581,
   53.9581,       616,
   53.9783,       608,
   53.9984,       625,
   54.0186,       625,
   54.0388,       653,
    54.059,       673,
   54.0791,       615,
   54.0993,       627,
   54.1195,       600,
   54.1396,       678,
   54.1598,       641,
     54.18,       690,
   54.2001,       665,
   54.2203,       666,
   54.2405,       629,
   54.2606,       666,
   54.2808,       645,
    54.301,       661,
   54.3211,       637,
   54.3413,       626,
   54.3615,       638,
   54.3816,       614,
   54.4018,       627,
    54.422,       637,
   54.4422,       642,
   54.4623,       615,
   54.4825,       602,
   54.5027,       675,
   54.5228,       647,
    54.543,       649,
   54.5632,       618,
   54.5833,       655,
   54.6035,       642,
   54.6237,       637,
   54.6438,       629,
    54.664,       596,
   54.6842,       672,
   54.7043,       663,
   54.7245,       664,
   54.7447,       655,
   54.7648,       650,
    54.785,       609,
   54.8052,       602,
   54.8254,       608,
   54.8455,       593,
   54.8657,       653,
   54.8859,       623,
    54.906,       608,
   54.9262,       649,
   54.9464,       627,
   54.9665,       641,
   54.9867,       629,
   55.0069,       609,
    55.027,       640,
   55.0472,       610,
   55.0674,       635,
   55.0875,       655,
   55.1077,       625,
   55.1279,       657,
   55.1481,       654,
   55.1682,       605,
   55.1884,       654,
   55.2086,       648,
   55.2287,       640,
   55.2489,       593,
   55.2691,       637,
   55.2892,       622,
   55.3094,       642,
   55.3296,       632,
   55.3497,       644,
   55.3699,       610,
   55.3901,       628,
   55.4102,       621,
   55.4304,       614,
   55.4506,       625,
   55.4707,       675,
   55.4909,       662,
   55.5111,       644,
   55.5313,       615,
   55.5514,       634,
   55.5716,       634,
   55.5918,       634,
   55.6119,       627,
   55.6321,       659,
   55.6523,       626,
   55.6724,       599,
   55.6926,       631,
   55.7128,       664,
   55.7329,       594,
   55.7531,       664,
   55.7733,       632,
   55.7934,       629,
   55.8136,       612,
   55.8338,       592,
    55.854,       607,
   55.8741,       647,
   55.8943,       615,
   55.9145,       602,
   55.9346,       652,
   55.9548,       591,
    55.975,       636,
   55.9951,       599,
   56.0153,       638,
   56.0355,       601,
   56.0556,       598,
   56.0758,       583,
    56.096,       607,
   56.1161,       635,
   56.1363,       613,
   56.1565,       647,
   56.1766,       598,
   56.1968,       613,
    56.217,       606,
   56.2372,       612,
   56.2573,       618,
   56.2775,       623,
   56.2977,       600,
   56.3178,       615,
    56.338,       625,
   56.3582,       628,
   56.3783,       608,
   56.3985,       590,
   56.4187,       620,
   56.4388,       630,
    56.459,       603,
   56.4792,       603,
   56.4993,       641,
   56.5195,       614,
   56.5397,       627,
   56.5598,       587,
     56.58,       611,
   56.6002,       619,
   56.6204,       661,
   56.6405,       627,
   56.6607,       587,
   56.6809,       646,
    56.701,       655,
   56.7212,       613,
   56.7414,       604,
   56.7615,       602,
   56.7817,       603,
   56.8019,       598,
    56.822,       613,
   56.8422,       616,
   56.8624,       605,
   56.8825,       599,
   56.9027,       620,
   56.9229,       576,
   56.9431,       627,
   56.9632,       613,
   56.9834,       652,
   57.0036,       593,
   57.0237,       593,
   57.0439,       627,
   57.0641,       609,
   57.0842,       666,
   57.1044,       615,
   57.1246,       601,
   57.1447,       650,
   57.1649,       627,
   57.1851,       666,
   57.2052,       594,
   57.2254,       601,
   57.2456,       612,
   57.2657,       609,
   57.2859,       608,
   57.3061,       637,
   57.3263,       614,
   57.3464,       597,
   57.3666,       658,
   57.3868,       620,
   57.4069,       649,
   57.4271,       580,
   57.4473,       577,
   57.4674,       618,
   57.4876,       635,
   57.5078,       633,
   57.5279,       667,
   57.5481,       641,
   57.5683,       560,
   57.5884,       615,
   57.6086,       579,
   57.6288,       621,
   57.6489,       615,
   57.6691,       624,
   57.6893,       655,
   57.7095,       607,
   57.7296,       599,
   57.7498,       631,
     57.77,       633,
   57.7901,       598,
   57.8103,       630,
   57.8305,       628,
   57.8506,       606,
   57.8708,       613,
    57.891,       598,
   57.9111,       624,
   57.9313,       624,
   57.9515,       549,
   57.9716,       587,
   57.9918,       637,
    58.012,       593,
   58.0322,       595,
   58.0523,       573,
   58.0725,       660,
   58.0927,       613,
   58.1128,       690,
    58.133,       606,
   58.1532,       639,
   58.1733,       599,
   58.1935,       596,
   58.2137,       629,
   58.2338,       606,
    58.254,       622,
   58.2742,       602,
   58.2943,       607,
   58.3145,       622,
   58.3347,       633,
   58.3548,       615,
    58.375,       587,
   58.3952,       598,
   58.4154,       625,
   58.4355,       586,
   58.4557,       637,
   58.4759,       641,
    58.496,       553,
   58.5162,       610,
   58.5364,       609,
   58.5565,       676,
   58.5767,       622,
   58.5969,       613,
    58.617,       616,
   58.6372,       604,
   58.6574,       592,
   58.6775,       607,
   58.6977,       624,
   58.7179,       588,
    58.738,       585,
   58.7582,       626,
   58.7784,       603,
   58.7986,       704,
   58.8187,       615,
   58.8389,       557,
   58.8591,       605,
   58.8792,       577,
   58.8994,       621,
   58.9196,       610,
   58.9397,       598,
   58.9599,       625,
   58.9801,       635,
   59.0002,       586,
   59.0204,       645,
   59.0406,       593,
   59.0607,       642,
   59.0809,       604,
   59.1011,       620,
   59.1213,       620,
   59.1414,       611,
   59.1616,       610,
   59.1818,       574,
   59.2019,       643,
   59.2221,       591,
   59.2423,       558,
   59.2624,       665,
   59.2826,       595,
   59.3028,       597,
   59.3229,       560,
   59.3431,       633,
   59.3633,       577,
   59.3834,       655,
   59.4036,       658,
   59.4238,       596,
   59.4439,       585,
   59.4641,       603,
   59.4843,       614,
   59.5045,       594,
   59.5246,       608,
   59.5448,       604,
    59.565,       644,
   59.5851,       605,
   59.6053,       593,
   59.6255,       601,
   59.6456,       595,
   59.6658,       607,
    59.686,       624,
   59.7061,       566,
   59.7263,       632,
   59.7465,       621,
   59.7666,       577,
   59.7868,       588,
    59.807,       616,
   59.8271,       627,
   59.8473,       589,
   59.8675,       613,
   59.8877,       607,
   59.9078,       618,
    59.928,       616,
   59.9482,       618,
   59.9683,       641,
   59.9885,       583,
   60.0087,       595,
   60.0288,       598,
    60.049,       608,
   60.0692,       586,
   60.0893,       581,
   60.1095,       644,
   60.1297,       587,
   60.1498,       592,
     60.17,       621,
   60.1902,       591,
   60.2104,       625,
   60.2305,       625,
   60.2507,       636,
   60.2709,       639,
    60.291,       605,
   60.3112,       618,
   60.3314,       624,
   60.3515,       571,
   60.3717,       600,
   60.3919,       655,
    60.412,       605,
   60.4322,       622,
   60.4524,       614,
   60.4725,       581,
   60.4927,       608,
   60.5129,       612,
    60.533,       632,
   60.5532,       610,
   60.5734,       605,
   60.5936,       574,
   60.6137,       599,
   60.6339,       616,
   60.6541,       617,
   60.6742,       582,
   60.6944,       696,
   60.7146,       602,
   60.7347,       614,
   60.7549,       600,
   60.7751,       580,
   60.7952,       595,
   60.8154,       614,
   60.8356,       564,
   60.8557,       625,
   60.8759,       601,
   60.8961,       610,
   60.9163,       590,
   60.9364,       617,
   60.9566,       561,
   60.9768,       624,
   60.9969,       602,
   61.0171,       596,
   61.0373,       604,
   61.0574,       610,
   61.0776,       678,
   61.0978,       599,
   61.1179,       583,
   61.1381,       639,
   61.1583,       585,
   61.1784,       621,
   61.1986,       634,
   61.2188,       616,
   61.2389,       564,
   61.2591,       583,
   61.2793,       607,
   61.2995,       571,
   61.3196,       612,
   61.3398,       605,
     61.36,       632,
   61.3801,       595,
   61.4003,       562,
   61.4205,       611,
   61.4406,       607,
   61.4608,       552,
    61.481,       596,
   61.5011,       650,
   61.5213,       584,
   61.5415,       632,
   61.5616,       571,
   61.5818,       606,
    61.602,       592,
   61.6221,       569,
   61.6423,       590,
   61.6625,       574,
   61.6827,       616,
   61.7028,       632,
    61.723,       589,
   61.7432,       569,
   61.7633,       604,
   61.7835,       621,
   61.8037,       564,
   61.8238,       596,
    61.844,       609,
   61.8642,       626,
   61.8843,       633,
   61.9045,       592,
   61.9247,       590,
   61.9448,       567,
    61.965,       592,
   61.9852,       631,
   62.0054,       616,
   62.0255,       670,
   62.0457,       588,
   62.0659,       602,
    62.086,       636,
   62.1062,       613,
   62.1264,       611,
   62.1465,       617,
   62.1667,       627,
   62.1869,       635,
    62.207,       616,
   62.2272,       565,
   62.2474,       607,
   62.2675,       612,
   62.2877,       607,
   62.3079,       580,
    62.328,       591,
   62.3482,       591,
   62.3684,       591,
   62.3886,       550,
   62.4087,       612,
   62.4289,       562,
   62.4491,       601,
   62.4692,       597,
   62.4894,       610,
   62.5096,       617,
   62.5297,       638,
   62.5499,       581,
   62.5701,       585,
   62.5902,       563,
   62.6104,       571,
   62.6306,       594,
   62.6507,       597,
   62.6709,       627,
   62.6911,       579,
   62.7112,       584,
   62.7314,       613,
   62.7516,       670,
   62.7718,       598,
   62.7919,       613,
   62.8121,       611,
   62.8323,       571,
   62.8524,       572,
   62.8726,       581,
   62.8928,       615,
   62.9129,       597,
   62.9331,       583,
   62.9533,       586,
   62.9734,       605,
   62.9936,       584,
   63.0138,       565,
   63.0339,       571,
   63.0541,       593,
   63.0743,       578,
   63.0945,       588,
   63.1146,       577,
   63.1348,       572,
    63.155,       580,
   63.1751,       547,
   63.1953,       603,
   63.2155,       551,
   63.2356,       614,
   63.2558,       570,
    63.276,       581,
   63.2961,       613,
   63.3163,       591,
   63.3365,       599,
   63.3566,       574,
   63.3768,       580,
    63.397,       572,
   63.4171,       576,
   63.4373,       591,
   63.4575,       597,
   63.4777,       615,
   63.4978,       579,
    63.518,       598,
   63.5382,       626,
   63.5583,       573,
   63.5785,       606,
   63.5987,       567,
   63.6188,       565,
    63.639,       599,
   63.6592,       609,
   63.6793,       557,
   63.6995,       621,
   63.7197,       657,
   63.7398,       562,
     63.76,       617,
   63.7802,       584,
   63.8003,       643,
   63.8205,       600,
   63.8407,       620,
   63.8609,       574,
    63.881,       556,
   63.9012,       629,
   63.9214,       560,
   63.9415,       591,
   63.9617,       579,
   63.9819,       595,
    64.002,       615,
   64.0222,       622,
   64.0424,       613,
   64.0625,       608,
   64.0827,       623,
   64.1029,       585,
    64.123,       620,
   64.1432,       624,
   64.1634,       572,
   64.1836,       588,
   64.2037,       605,
   64.2239,       588,
   64.2441,       630,
   64.2642,       600,
   64.2844,       579,
   64.3046,       563,
   64.3247,       639,
   64.3449,       562,
   64.3651,       648,
   64.3852,       582,
   64.4054,       597,
   64.4256,       629,
   64.4457,       628,
   64.4659,       581,
   64.4861,       594,
   64.5062,       601,
   64.5264,       618,
   64.5466,       622,
   64.5668,       593,
   64.5869,       598,
   64.6071,       619,
   64.6273,       575,
   64.6474,       570,
   64.6676,       577,
   64.6878,       621,
   64.7079,       608,
   64.7281,       623,
   64.7483,       555,
   64.7684,       579,
   64.7886,       582,
   64.8088,       589,
   64.8289,       624,
   64.8491,       579,
   64.8693,       584,
   64.8894,       619,
   64.9096,       624,
   64.9298,       588,
     64.95,       645,
   64.9701,       591,
   64.9903,       585,
   65.0105,       622,
   65.0306,       593,
   65.0508,       629,
    65.071,       621,
   65.0911,       564,
   65.1113,       595,
   65.1315,       612,
   65.1516,       584,
   65.1718,       584,
    65.192,       627,
   65.2121,       622,
   65.2323,       596,
   65.2525,       586,
   65.2727,       590,
   65.2928,       588,
    65.313,       619,
   65.3332,       570,
   65.3533,       614,
   65.3735,       591,
   65.3937,       620,
   65.4138,       558,
    65.434,       583,
   65.4542,       589,
   65.4743,       585,
   65.4945,       607,
   65.5147,       570,
   65.5348,       547,
    65.555,       576,
   65.5752,       601,
   65.5953,       618,
   65.6155,       600,
   65.6357,       599,
   65.6559,       613,
    65.676,       602,
   65.6962,       641,
   65.7164,       573,
   65.7365,       537,
   65.7567,       582,
   65.7769,       577,
    65.797,       610,
   65.8172,       613,
   65.8374,       601,
   65.8575,       583,
   65.8777,       604,
   65.8979,       624,
    65.918,       619,
   65.9382,       609,
   65.9584,       618,
   65.9786,       605,
   65.9987,       608,
   66.0189,       576,
   66.0391,       570,
   66.0592,       572,
   66.0794,       626,
   66.0996,       586,
   66.1197,       614,
   66.1399,       603,
   66.1601,       619,
   66.1802,       543,
   66.2004,       615,
   66.2206,       574,
   66.2407,       580,
   66.2609,       601,
   66.2811,       590,
   66.3012,       579,
   66.3214,       611,
   66.3416,       607,
   66.3618,       605,
   66.3819,       639,
   66.4021,       598,
   66.4223,       623,
   66.4424,       616,
   66.4626,       622,
   66.4828,       584,
   66.5029,       583,
   66.5231,       589,
   66.5433,       618,
   66.5634,       594,
   66.5836,       568,
   66.6038,       586,
   66.6239,       611,
   66.6441,       603,
   66.6643,       610,
   66.6844,       632,
   66.7046,       615,
   66.7248,       639,
    66.745,       613,
   66.7651,       607,
   66.7853,       577,
   66.8055,       599,
   66.8256,       606,
   66.8458,       592,
    66.866,       554,
   66.8861,       636,
   66.9063,       587,
   66.9265,       590,
   66.9466,       550,
   66.9668,       588,
    66.987,       629,
   67.0071,       591,
   67.0273,       578,
   67.0475,       596,
   67.0677,       615,
   67.0878,       603,
    67.108,       601,
   67.1282,       616,
   67.1483,       629,
   67.1685,       566,
   67.1887,       614,
   67.2088,       580,
    67.229,       601,
   67.2492,       568,
   67.2693,       545,
   67.2895,       643,
   67.3097,       607,
   67.3298,       595,
     67.35,       611,
   67.3702,       601,
   67.3903,       603,
   67.4105,       605,
   67.4307,       589,
   67.4509,       568,
    67.471,       611,
   67.4912,       638,
   67.5114,       613,
   67.5315,       609,
   67.5517,       595,
   67.5719,       609,
    67.592,       545,
   67.6122,       626,
   67.6324,       621,
   67.6525,       565,
   67.6727,       591,
   67.6929,       618,
    67.713,       652,
   67.7332,       563,
   67.7534,       555,
   67.7735,       542,
   67.7937,       567,
   67.8139,       601,
   67.8341,       569,
   67.8542,       595,
   67.8744,       624,
   67.8946,       614,
   67.9147,       586,
   67.9349,       601,
   67.9551,       602,
   67.9752,       588,
   67.9954,       599,
   68.0156,       615,
   68.0357,       575,
   68.0559,       593,
   68.0761,       579,
   68.0962,       599,
   68.1164,       565,
   68.1366,       619,
   68.1568,       606,
   68.1769,       602,
   68.1971,       584,
   68.2173,       585,
   68.2374,       543,
   68.2576,       579,
   68.2778,       577,
   68.2979,       608,
   68.3181,       613,
   68.3383,       620,
   68.3584,       647,
   68.3786,       589,
   68.3988,       624,
   68.4189,       588,
   68.4391,       598,
   68.4593,       578,
   68.4794,       558,
   68.4996,       599,
   68.5198,       626,
     68.54,       628,
   68.5601,       639,
   68.5803,       607,
   68.6005,       595,
   68.6206,       582,
   68.6408,       568,
    68.661,       589,
   68.6811,       593,
   68.7013,       635,
   68.7215,       607,
   68.7416,       584,
   68.7618,       639,
    68.782,       608,
   68.8021,       625,
   68.8223,       576,
   68.8425,       598,
   68.8626,       600,
   68.8828,       569,
    68.903,       579,
   68.9232,       603,
   68.9433,       626,
   68.9635,       575,
   68.9837,       646,
   69.0038,       592,
    69.024,       572,
   69.0442,       625,
   69.0643,       611,
   69.0845,       585,
   69.1047,       571,
   69.1248,       583,
    69.145,       560,
   69.1652,       603,
   69.1853,       573,
   69.2055,       608,
   69.2257,       593,
   69.2459,       601,
    69.266,       562,
   69.2862,       566,
   69.3064,       561,
   69.3265,       590,
   69.3467,       661,
   69.3669,       632,
    69.387,       581,
   69.4072,       580,
   69.4274,       609,
   69.4475,       602,
   69.4677,       600,
   69.4879,       615,
    69.508,       581,
   69.5282,       606,
   69.5484,       604,
   69.5685,       588,
   69.5887,       542,
   69.6089,       598,
   69.6291,       535,
   69.6492,       584,
   69.6694,       600,
   69.6896,       637,
   69.7097,       582,
   69.7299,       598,
   69.7501,       582,
   69.7702,       574,
   69.7904,       591,
   69.8106,       578,
   69.8307,       612,
   69.8509,       603,
   69.8711,       621,
   69.8912,       594,
   69.9114,       609,
   69.9316,       627,
   69.9517,       595,
   69.9719,       563,
   69.9921,       594,
   70.0123,       626,
   70.0324,       599,
   70.0526,       594,
   70.0728,       590,
   70.0929,       597,
   70.1131,       599,
   70.1333,       573,
   70.1534,       544,
   70.1736,       558,
   70.1938,       585,
   70.2139,       596,
   70.2341,       569,
   70.2543,       585,
   70.2744,       593,
   70.2946,       621,
   70.3148,       601,
    70.335,       548,
   70.3551,       605,
   70.3753,       580,
   70.3955,       589,
   70.4156,       574,
   70.4358,       587,
    70.456,       565,
   70.4761,       595,
   70.4963,       627,
   70.5165,       619,
   70.5366,       591,
   70.5568,       589,
    70.577,       564,
   70.5971,       604,
   70.6173,       614,
   70.6375,       597,
   70.6576,       581,
   70.6778,       604,
    70.698,       594,
   70.7182,       578,
   70.7383,       626,
   70.7585,       575,
   70.7787,       574,
   70.7988,       619,
    70.819,       563,
   70.8392,       558,
   70.8593,       595,
   70.8795,       582,
   70.8997,       562,
   70.9198,       574,
     70.94,       587,
   70.9602,       608,
   70.9803,       640,
   71.0005,       575,
   71.0207,       591,
   71.0409,       585,
    71.061,       585,
   71.0812,       614,
   71.1014,       573,
   71.1215,       595,
   71.1417,       627,
   71.1619,       628,
    71.182,       572,
   71.2022,       623,
   71.2224,       587,
   71.2425,       595,
   71.2627,       601,
   71.2829,       592,
    71.303,       614,
   71.3232,       625,
   71.3434,       587,
   71.3635,       603,
   71.3837,       591,
   71.4039,       607,
   71.4241,       607,
   71.4442,       606,
   71.4644,       605,
   71.4846,       587,
   71.5047,       600,
   71.5249,       585,
   71.5451,       619,
   71.5652,       587,
   71.5854,       576,
   71.6056,       612,
   71.6257,       584,
   71.6459,       616,
   71.6661,       613,
   71.6862,       586,
   71.7064,       589,
   71.7266,       589,
   71.7467,       602,
   71.7669,       598,
   71.7871,       595,
   71.8073,       572,
   71.8274,       603,
   71.8476,       611,
   71.8678,       591,
   71.8879,       582,
   71.9081,       583,
   71.9283,       586,
   71.9484,       631,
   71.9686,       580,
   71.9888,       598,
   72.0089,       607,
   72.0291,       605,
   72.0493,       671,
   72.0694,       568,
   72.0896,       628,
   72.1098,       599,
     72.13,       566,
   72.1501,       600,
   72.1703,       593,
   72.1905,       588,
   72.2106,       609,
   72.2308,       673,
    72.251,       563,
   72.2711,       593,
   72.2913,       599,
   72.3115,       632,
   72.3316,       619,
   72.3518,       596,
    72.372,       581,
   72.3921,       572,
   72.4123,       650,
   72.4325,       605,
   72.4526,       623,
   72.4728,       615,
    72.493,       598,
   72.5132,       608,
   72.5333,       587,
   72.5535,       599,
   72.5737,       636,
   72.5938,       611,
    72.614,       582,
   72.6342,       584,
   72.6543,       548,
   72.6745,       585,
   72.6947,       598,
   72.7148,       585,
    72.735,       650,
   72.7552,       641,
   72.7753,       640,
   72.7955,       591,
   72.8157,       672,
   72.8358,       616,
    72.856,       607,
   72.8762,       616,
   72.8964,       652,
   72.9165,       612,
   72.9367,       597,
   72.9569,       597,
    72.977,       648,
   72.9972,       602,
   73.0174,       606,
   73.0375,       645,
   73.0577,       615,
   73.0779,       625,
    73.098,       632,
   73.1182,       656,
   73.1384,       630,
   73.1585,       639,
   73.1787,       617,
   73.1989,       618,
   73.2191,       646,
   73.2392,       682,
   73.2594,       707,
   73.2796,       680,
   73.2997,       692,
   73.3199,       686,
   73.3401,       676,
   73.3602,       723,
   73.3804,       681,
   73.4006,       700,
   73.4207,       670,
   73.4409,       715,
   73.4611,       668,
   73.4812,       681,
   73.5014,       717,
   73.5216,       721,
   73.5417,       748,
   73.5619,       755,
   73.5821,       778,
   73.6023,       781,
   73.6224,       794,
   73.6426,       800,
   73.6628,       830,
   73.6829,       814,
   73.7031,       884,
   73.7233,       872,
   73.7434,       936,
   73.7636,       965,
   73.7838,       926,
   73.8039,       965,
   73.8241,      1020,
   73.8443,      1056,
   73.8644,      1087,
   73.8846,      1089,
   73.9048,      1108,
   73.9249,      1187,
   73.9451,      1189,
   73.9653,      1245,
   73.9855,      1288,
   74.0056,      1332,
   74.0258,      1352,
    74.046,      1399,
   74.0661,      1411,
   74.0863,      1388,
   74.1065,      1410,
   74.1266,      1512,
   74.1468,      1460,
    74.167,      1455,
   74.1871,      1391,
   74.2073,      1421,
   74.2275,      1333,
   74.2476,      1422,
   74.2678,      1395,
    74.288,      1302,
   74.3082,      1294,
   74.3283,      1266,
   74.3485,      1235,
   74.3687,      1144,
   74.3888,      1141,
    74.409,      1151,
   74.4292,      1086,
   74.4493,      1041,
   74.4695,      1061,
   74.4897,       969,
   74.5098,       888,
     74.53,       965,
   74.5502,       915,
   74.5703,       904,
   74.5905,       891,
   74.6107,       880,
   74.6308,       811,
    74.651,       876,
   74.6712,       775,
   74.6914,       758,
   74.7115,       806,
   74.7317,       756,
   74.7519,       815,
    74.772,       738,
   74.7922,       757,
   74.8124,       732,
   74.8325,       692,
   74.8527,       701,
   74.8729,       720,
    74.893,       705,
   74.9132,       689,
   74.9334,       704,
   74.9535,       654,
   74.9737,       667,
   74.9939,       668,
    75.014,       656,
   75.0342,       684,
   75.0544,       644,
   75.0746,       657,
   75.0947,       626,
   75.1149,       620,
   75.1351,       677,
   75.1552,       624,
   75.1754,       648,
   75.1956,       673,
   75.2157,       616,
   75.2359,       635,
   75.2561,       640,
   75.2762,       673,
   75.2964,       639,
   75.3166,       621,
   75.3367,       640,
   75.3569,       620,
   75.3771,       622,
   75.3973,       619,
   75.4174,       611,
   75.4376,       624,
   75.4578,       648,
   75.4779,       632,
   75.4981,       654,
   75.5183,       612,
   75.5384,       613,
   75.5586,       607,
   75.5788,       585,
   75.5989,       608,
   75.6191,       626,
   75.6393,       593,
   75.6594,       592,
   75.6796,       640,
   75.6998,       648,
   75.7199,       599,
   75.7401,       595,
   75.7603,       592,
   75.7805,       545,
   75.8006,       614,
   75.8208,       616,
    75.841,       617,
   75.8611,       627,
   75.8813,       595,
   75.9015,       574,
   75.9216,       576,
   75.9418,       585,
    75.962,       634,
   75.9821,       575,
   76.0023,       597,
   76.0225,       621,
   76.0426,       596,
   76.0628,       617,
    76.083,       642,
   76.1032,       614,
   76.1233,       581,
   76.1435,       616,
   76.1637,       601,
   76.1838,       601,
    76.204,       610,
   76.2242,       631,
   76.2443,       572,
   76.2645,       577,
   76.2847,       590,
   76.3048,       618,
    76.325,       578,
   76.3452,       575,
   76.3653,       581,
   76.3855,       585,
   76.4057,       584,
   76.4258,       568,
    76.446,       603,
   76.4662,       646,
   76.4864,       599,
   76.5065,       621,
   76.5267,       590,
   76.5469,       579,
    76.567,       619,
   76.5872,       580,
   76.6074,       619,
   76.6275,       575,
   76.6477,       605,
   76.6679,       597,
    76.688,       619,
   76.7082,       546,
   76.7284,       618,
   76.7485,       669,
   76.7687,       610,
   76.7889,       615,
    76.809,       581,
   76.8292,       579,
   76.8494,       614,
   76.8696,       587,
   76.8897,       583,
   76.9099,       635,
   76.9301,       565,
   76.9502,       576,
   76.9704,       606,
   76.9906,       578,
   77.0107,       633,
   77.0309,       569,
   77.0511,       593,
   77.0712,       580,
   77.0914,       577,
   77.1116,       592,
   77.1317,       563,
   77.1519,       576,
   77.1721,       625,
   77.1923,       615,
   77.2124,       576,
   77.2326,       600,
   77.2528,       589,
   77.2729,       607,
   77.2931,       603,
   77.3133,       598,
   77.3334,       614,
   77.3536,       564,
   77.3738,       595,
   77.3939,       595,
   77.4141,       569,
   77.4343,       572,
   77.4544,       583,
   77.4746,       610,
   77.4948,       598,
   77.5149,       629,
   77.5351,       546,
   77.5553,       550,
   77.5755,       597,
   77.5956,       599,
   77.6158,       605,
    77.636,       591,
   77.6561,       592,
   77.6763,       561,
   77.6965,       603,
   77.7166,       578,
   77.7368,       571,
    77.757,       600,
   77.7771,       559,
   77.7973,       601,
   77.8175,       627,
   77.8376,       608,
   77.8578,       564,
    77.878,       594,
   77.8981,       620,
   77.9183,       615,
   77.9385,       545,
   77.9587,       614,
   77.9788,       614,
    77.999,       587,
