;RAW4.00
[RawHeader]
Date=11/26/2025
EstimatedTotalTime=426.6
FurtherDQLReading=0
HardwareIndicator=65519
MeasuredTotalTime=4.29503
MeasurementFlag=1
NumberOfMeasuredRanges=1
NumberOfRanges=1
Time=16:30:31

[VarInfo]
Type=USER
Flags=0
Value=Lab Manager

[VarInfo]
Type=SAMPLEID
Flags=0
Value=Commander Sample ID

[VarInfo]
Type=COMMENT
Flags=0
Value=

[VarInfo]
Type=UTF
Flags=0
Value=

[VarInfo]
Type=CREATOR
Flags=0
Value=V5Converter

[VarInfo]
Type=CREATOR_VERSION
Flags=0
Value=4.4.16.0

[HardwareConfiguration]
AbsorptionFactor=9999
ActivateAbsorber=0
Alpha1=1.5406
Alpha2=1.54439
AlphaAverage=1.54184
AlphaRatio=0.5
Analyzer=0
Anode=Cu
AntiScatteringSlit=9999
BeamOpticsFlags=0
Beta=1.39222
BetaRelativeIntensity=0
DeactivateAbsorber=0
DetectorSlit=9999
DivergenceSlit=9999
GoniometerControl=0
GoniometerDiameter=282
GoniometerModel=256
GoniometerStage=7
Monochromator=0
NearSampleSlit=9999
PrimarySollerSlit=9999
SampleChanger=0
SecondSollerSlit=9999
SynchronousAxis=0
ThinFilmAttachment=9999
WaveUnit=A

[RangeHeader]
ActuallyUsedLambda=1.54184
AdditionalDetectorMask=257
DataRecordLength=4
DelayTime=0
DisplayPlaneNumber=0
EstimatedScanTime=427
ExtraParametersMask=0
GeneratorCurrent=10
GeneratorVoltage=30
Increment=0.0201685
Increment3=0
NumberOfCompletedData=1885
NumberOfCounts=1
NumberOfDetectors=0
NumberOfDrives=3
NumberOfEncoderDrives=0
NumberOfMeasuredData=1885
NumberOfVaryingParameters=0
RangeStartTime=0
RotationSpeed=0
ScanMode=1
ScanType=Locked Coupled
SimulatedMeasConditions=0
SlitChangerIn=0
SmootingWidth=0
Start=40.0015
Steps=1885
SynchronousRotation=0
Time=33

[VarInfo]
Type=PSD_DISCRIM
Flags=0
Value=0.11;0.5

[VarInfo]
Type=OPTICS_V5
Flags=0
Value=H4sIAAAAAAAEAO1d63KjOhJ+Fda/zqmtBIPtXKaITzm2J+OaOHbFTnKmtrZcBORYZzC4AOey//d99hl2X2x1QViIS8C3JBN+TCaodWm6+2vUUkfS/nieW9IjcD3o2GcV5bBakYBtOCa0H84qS396oBxV/mhqF44NnTnwgdt25gvHBrbf0X1dQq1t78uzB88qM99ffJHlp6enw6faoeM+yGq1qsh/9i9HxgzM9QNoe75uG6AStjJfb1WRbqEH7y1wpc/BWWXFR0joAM9w4cInL/Bj4UHLsSW+3oXrLBc9NBZ6t3Pgojcb3P8FDH+o+7OzitwBj9AAMt+CrxUfl1Lblu55QRehTORzoM8XqLDt2L4ObeBy/coBc6yHluEvdYtxoR6o1ePT02O5h8TkLue4tzhrTW2EZGjqqBswQr3oFvyXjl+9OdUtD2hyGln7c259hcAyrwHqHhq4EDFpA/KbJ8lNjfKD1ToCFipvdm00JDA1OUbR6Btwou9Ab2HpL824AjQ5tXK8m+bF4OrHhPzodEft64TGrBVWDOsoPhpP1bBWhrxWvISy1r0hIUP+4r8skMLHrm78xG8sGODQhXPdfSHkZBMMakgD9GxISBvSeHkPOIFIQeOidilHx44baRI9r5mSRmyEDSxUYBJZ3blu/xy4JnCvAfYzAL0wsdX3b8s5NVnMwIfj6+8T9KPV/l7IxHm5Jhp5z0OvBh9BE+kGCS98DAk920dCZMIVSikeHA9SJulgmhwp1bAq2ZMXfZT4B2LSAxc+QFu3ogSlwl6OWi7Ssb/0moPwnSLFGmsYPPedJdIj0qJQrgWE0MJ5JCOdEXICmjFtjmnJUA7J0tRxpRHQLUBtYA3AytxYcejGiMm4JZa46kmmLG0LrhEWBa3xcus++8A2MZDfDYZpCWdMkQKtj5nwHfcltGVFk+OFGseMJxH2qHoYWND7cnJosmJN5ku1uCnh1+H65qyTKx3Y545jAR1NEG5s6BPpdiDSG56bXcI59IlYwiKvWdVk7knrgKm+tPxb3VoCboigVyQ96CPXTshnFewlKri/oQta5l9LD8GnYEuZYx67mbHTJoqe6ZblPK0cjVCOarZnwPgJzFUVVqC1ESPOHKsWvx33pNH5Zl7erhEyxkg2xVq1lr7TdoHug6HrLIDrvzAWEyiR9/eIRfdMhLKr5fweuE21rslCEdaQRS08UPF//xMyUSUc9B0TNG8Quqbos4xMnTwz90Y+PzEHluy7tuWt5HgP/ND5vNXOHBXjLvaN2aNbYuh5A79Evm3IJvErCL6JJ23LP418rD3OPSHRTOHDEjnla/gw85sIdabECnU0BoKwUKWYS+vrz5fAfvBnTbXRwKJhj2nOjrJISkNktZevObqMVm/q5DL4SnFwGS02cm5pFninPwKqkpa1mOmKYIUieVuWOJh2nCVqyWzxf//ehzWm2Nxw9uJBQ7dIeQJnTA/KYaNePXrNFtfo7ca2MPfItOjcf/WMZelYS+paugfVBtErK9H60Ibz5bx5oBwenx4fndaUWv3kSK0pjePu32vVE4S4oAZGIvklvWZQ4W0Rs4b0UpC0Rk/7QJiajTD10yOsXjvdJsRYdyXGNhLfFkDGuto1yh6Bqz+IoV6M/ulxppzUt4kz1l2Js43EtwWcsa52jLNz4OupIMPET46w2qmqqttD2Kq7EmEbiW9jhK262jHCrvGaRirECHVXGHuvCFutth02NsJWrKMSVWsKbh08xTrZCZK+OsbSG7gQ2D5ZHRSgJJK3tspG1g4H057tH9XfH6CibEVXr/OjKbkXhfRCBYDfqOeDOWLs0nmABl3VvJn0rm5bl73OpP2tN9TkFYkJfAye/WbPftQtiMQzg4uVjCJaIvW07+CFjI1lEf6uyTEWsnm67F2lsnIJbSARW0kbWtlk6OEgY+yhA20/e3B1k8GZLoaD0auqCHeKD6S58wgk35HmwJjpNrYKCTmTxd/SeKxl8/ienF2WXefzdFk9bOTm6N5Lz546UqiqhAVciZbr3FOQY3BWIVUkVBrdJr+ZtC6H31rRcrGRhEeyyEjkXXKxo0bYURPZUVPYUbPYUQuzEywL8PxEyoQBQloib5PW7UUWe0HrokySmCrg8D78PeybkkWGzrvjVjIvuH4+FiIbUQEDqBXeyxN46LJSkY3uZbffvRqnSMV2TCAFbaXVSDlkQmfBvNq4EkHsASVZZdetcW+QpTTSOp+8YlOLgL9pYnk4ToQicvl10J4MrpMZJONJkeZyfMe6Ed+xvgA2skTfcYU8TFacvPmcsQFLZ8dr7r82tXQiP3O7dSw/voYXlO4q5vl5u6WEjcypLxqFfRNqVSHyCL4FKaFHctihVBMCjFp1f7FErbF+MBEXRsEvZLo55TW19tJ1sT+LmlpQuitTm7f2YWpolHD6sQ1TaySFsh/E0uKy2LulDZ0nkgHOmxQp25WV3aUEnW+xcHMnRJr5lluqhymm+EkWW+4491hde7Ul3ssWbV9+7YtfJA0UTQyNGXBfyVbbPA8ud74bklUw60j9YgWfilQ/I4dzraYmBmuZ2QhiKJW9qxqLdLI3h6IxR/YytzAXT1vD42MIIXVJnC4nR8cylyaJ7OZRhxZeJcCPHu2eWH2ZQFkmUJYJlGUCZZlA+fE2xcsEyvezJV4mUP6aCCsTKN8TxsoEyl8VZ2UC5XvCWZlA+ashrEygfE8IKxMoywTKMoGyTKAsEyjLBMoygbJMoCwTKMsEyjKBskygLBMoywTKMoGyTKAsEyjLBMoygbJMoHzr+KNMoCwTKD9tAiXLkUS/iumT7KzT+Cmg4tm7GScqd+cL/4UkG4arGcVOT+72h4PRhP4scnoyGTg0xcTzk2U+BzLzcGMl7XBjde+HGw8WbefceR5MR45lATfhiGNKyDjkmKsg/WbotmTQQ8ElNJZEifQE7N/XgX9k+LhXSSBnuYaE6hunwkb7FPSZfOxxRGTIPPKL8PePe2KymphYK0bAR+scevtxXAin6Q2diJrmRGpv50S+wmdgEkNlcw/RmVjQz3IliCz1U2CAaRv4kdXICV5EJGb6ELHy5h6E61FQZYr/YA2o98gntQ/sOmq5XMfxeudlE7OmVzSsTJpYMhZe0hcRy1SR/jGf/zPDjH/DR/7fA2QfErQ9hAVgol98R9I5hWWaMq5mhBds4KeJUp0oaQYcIb5mwIVtN52ZmPP5qH/5US30lx930PRnYm4HLtvZktP8/WxBxzgL44DNsuvjPeVdZqh+7nWGuODWWWeI97KTtI5vABumgB1a+LnBszXslNBZz+i3gpzt3wSirjOzGenzhQXuZgBYY/QC/KUgIkkjH65UJ0ChmfamMj+F+lCxGJtFbxiJ1dIisfpGkRjhMR6HvT9h3thLD5hkeHHgLInKwm1g17oJl16CldWVYB+fXrg3mE494KdZfesZevz3Iay2B1ceYybnbh1ywVU1LSlVPTypn6qNRkNN8LvHjcOTRv24dqQqvK8VhNAM7mETbitc+w7DEUCRgJl9i2FYh7v9roNCXwNnMmzhLkORh4SYKLFGsfsMwz42ifVFRj70nYaF9FrM/4zwzYaj4jcbRuW787sNw+F2cbvhyRss3uHlOks3wMyxzMQtgMsX+xm8pBxzcfnj6s/ujy654bCjSsOZ7olX4OYEsRyOEwezQMpa3mDWKOO8X3k4Wj2jProvYAvX6KYzLmrzl7v28CTPUlxNiU9Yi8wL0ecUu0XdWrmWfniNJk2pxn6HJHazGl4xZ9PpjyfkXwFHw4ba6R6gstmscZebgP09bgIKCIswkLYN2N/zNmAmj6JSs3YC+59rJ1Cp53Ii1c+wFVhGSkUjpbRAqXF4dHrSUJRqPWmBqqEcHldP68dqfQeB0sontAHGieA9hcKI4+SmzLSadMAw70kjnLfkkW8dVkPLMIDnOS4E3hoRE+Mi7j2jlLwRUvyl1/ekrIcPHRqtqcpiLudicNWekB9FHA7lZ+eh0Ri4qHQnkdHp3mdFwxkkShPAfO0EGXBRYgTUqKlErdE1Wb0CGJXZGHSdNqGDKCsJ1TJnP6vqMuJUZpxuDuAUxgVFpsREEgUYMFu+rxszPNBZ5WDPRwluc5pzmitr4SQ+y+l5TBQhKMMCjfMcZLfIWj48ALPjYkzSv8ZE3eHvWs9sIu2S3oNHTCEVRwtgwGnwt6KsUpyC4BLvvcgEK46DYs5u+K03mpAfRZxdFKHbnGBVi0yvQisOP5lEYfRDEPwf22IqXU7pckqXI7qcECvsd+8VLsZPznhGTjB6jZVIzZz8ZA+dc9yig6ZEJvFifFQxXo8YAd9H0PIkfi6GHAXNPKxILbzB7vVR6AbplI5NtLGOuVT/5i2e1Rn4EFu+VFtBkewhB6uqmiyUa3yqI/WAkWUTj/6JxSqYYK6D6Pv/u9RXv2COAAA=

[PSD]
ActualTwoTheta=9999
FirstUsedChannel=0
FixedPSD=0
PSDOpening=4.99171
PSDType=5

[Drive]
DriveFlags=1
DriveName=2Theta
DriveNumber=2
DriveOffset=0
OffsetIndex=0
OscillationAmplitude=0
OscillationSpeed=0
StartPosition=40.0015

[Drive]
DriveFlags=1
DriveName=Theta
DriveNumber=1
DriveOffset=0
OffsetIndex=0
OscillationAmplitude=0
OscillationSpeed=0
StartPosition=20.0007

[Drive]
DriveFlags=1
DriveName=Phi
DriveNumber=3
DriveOffset=0
OffsetIndex=0
OscillationAmplitude=0
OscillationSpeed=0
StartPosition=0

[Data]
     Angle,       PSD,
   40.0015,       643,
   40.0217,       620,
   40.0418,       633,
    40.062,       660,
   40.0822,       697,
   40.1023,       598,
   40.1225,       676,
   40.1427,       609,
   40.1628,       710,
    40.183,       633,
   40.2032,       652,
   40.2233,       646,
   40.2435,       616,
   40.2637,       587,
   40.2838,       637,
    40.304,       614,
   40.3242,       687,
   40.3444,       630,
   40.3645,       633,
   40.3847,       641,
   40.4049,       571,
    40.425,       641,
   40.4452,       633,
   40.4654,       640,
   40.4855,       700,
   40.5057,       660,
   40.5259,       614,
    40.546,       675,
   40.5662,       636,
   40.5864,       651,
   40.6065,       618,
   40.6267,       641,
   40.6469,       573,
   40.6671,       659,
   40.6872,       632,
   40.7074,       646,
   40.7276,       644,
   40.7477,       672,
   40.7679,       665,
   40.7881,       625,
   40.8082,       584,
   40.8284,       589,
   40.8486,       629,
   40.8687,       633,
   40.8889,       655,
   40.9091,       641,
   40.9292,       633,
   40.9494,       665,
   40.9696,       674,
   40.9897,       674,
   41.0099,       627,
   41.0301,       630,
   41.0503,       695,
   41.0704,       621,
   41.0906,       641,
   41.1108,       652,
   41.1309,       692,
   41.1511,       637,
   41.1713,       640,
   41.1914,       658,
   41.2116,       653,
   41.2318,       669,
   41.2519,       648,
   41.2721,       609,
   41.2923,       644,
   41.3124,       601,
   41.3326,       637,
   41.3528,       673,
   41.3729,       666,
   41.3931,       625,
   41.4133,       620,
   41.4335,       698,
   41.4536,       623,
   41.4738,       657,
    41.494,       603,
   41.5141,       667,
   41.5343,       670,
   41.5545,       603,
   41.5746,       660,
   41.5948,       652,
    41.615,       690,
   41.6351,       667,
   41.6553,       671,
   41.6755,       628,
   41.6956,       623,
   41.7158,       668,
    41.736,       631,
   41.7562,       667,
   41.7763,       696,
   41.7965,       637,
   41.8167,       672,
   41.8368,       654,
    41.857,       635,
   41.8772,       662,
   41.8973,       723,
   41.9175,       703,
   41.9377,       755,
   41.9578,       744,
    41.978,       689,
   41.9982,       752,
   42.0183,       774,
   42.0385,       779,
   42.0587,       756,
   42.0788,       768,
    42.099,       746,
   42.1192,       754,
   42.1394,       768,
   42.1595,       761,
   42.1797,       790,
   42.1999,       744,
     42.22,       719,
   42.2402,       749,
   42.2604,       772,
   42.2805,       693,
   42.3007,       747,
   42.3209,       729,
    42.341,       807,
   42.3612,       752,
   42.3814,       807,
   42.4015,       803,
   42.4217,       817,
   42.4419,       799,
    42.462,       790,
   42.4822,       779,
   42.5024,       817,
   42.5226,       789,
   42.5427,       732,
   42.5629,       736,
   42.5831,       821,
   42.6032,       793,
   42.6234,       800,
   42.6436,       793,
   42.6637,       753,
   42.6839,       823,
   42.7041,       788,
   42.7242,       788,
   42.7444,       809,
   42.7646,       832,
   42.7847,       858,
   42.8049,       830,
   42.8251,       833,
   42.8453,       817,
   42.8654,       856,
   42.8856,       880,
   42.9058,       879,
   42.9259,       861,
   42.9461,       912,
   42.9663,       963,
   42.9864,       963,
   43.0066,       982,
   43.0268,      1059,
   43.0469,      1098,
   43.0671,      1154,
   43.0873,      1213,
   43.1074,      1234,
   43.1276,      1282,
   43.1478,      1406,
   43.1679,      1382,
   43.1881,      1510,
   43.2083,      1646,
   43.2285,      1812,
   43.2486,      2141,
   43.2688,      2204,
    43.289,      2287,
   43.3091,      2398,
   43.3293,      2802,
   43.3495,      3411,
   43.3696,      4785,
   43.3898,      8065,
     43.41,     17659,
   43.4301,     38913,
   43.4503,     59715,
   43.4705,     52717,
   43.4906,     29119,
   43.5108,     15953,
    43.531,     16936,
   43.5511,     26776,
   43.5713,     32085,
   43.5915,     22990,
   43.6117,     11664,
   43.6318,      5509,
    43.652,      3428,
   43.6722,      2713,
   43.6923,      2226,
   43.7125,      2054,
   43.7327,      1997,
   43.7528,      1770,
    43.773,      1517,
   43.7932,      1472,
   43.8133,      1313,
   43.8335,      1267,
   43.8537,      1178,
   43.8738,      1140,
    43.894,      1107,
   43.9142,      1030,
   43.9344,       990,
   43.9545,       909,
   43.9747,       960,
   43.9949,       901,
    44.015,       836,
   44.0352,       902,
   44.0554,       904,
   44.0755,       906,
   44.0957,       850,
   44.1159,       860,
    44.136,       838,
   44.1562,       847,
   44.1764,       796,
   44.1965,       795,
   44.2167,       817,
   44.2369,       843,
    44.257,       802,
   44.2772,       833,
   44.2974,       800,
   44.3176,       755,
   44.3377,       768,
   44.3579,       768,
   44.3781,       770,
   44.3982,       780,
   44.4184,       816,
   44.4386,       723,
   44.4587,       735,
   44.4789,       826,
   44.4991,       749,
   44.5192,       765,
   44.5394,       815,
   44.5596,       739,
   44.5797,       830,
   44.5999,       749,
   44.6201,       771,
   44.6402,       733,
   44.6604,       766,
   44.6806,       760,
   44.7008,       761,
   44.7209,       703,
   44.7411,       739,
   44.7613,       757,
   44.7814,       767,
   44.8016,       737,
   44.8218,       712,
   44.8419,       712,
   44.8621,       732,
   44.8823,       792,
   44.9024,       769,
   44.9226,       701,
   44.9428,       760,
   44.9629,       744,
   44.9831,       766,
   45.0033,       766,
   45.0235,       716,
   45.0436,       757,
   45.0638,       748,
    45.084,       809,
   45.1041,       733,
   45.1243,       753,
   45.1445,       768,
   45.1646,       737,
   45.1848,       723,
    45.205,       721,
   45.2251,       709,
   45.2453,       711,
   45.2655,       722,
   45.2856,       707,
   45.3058,       741,
    45.326,       664,
   45.3461,       722,
   45.3663,       754,
   45.3865,       773,
   45.4067,       775,
   45.4268,       769,
    45.447,       774,
   45.4672,       746,
   45.4873,       720,
   45.5075,       765,
   45.5277,       722,
   45.5478,       696,
    45.568,       764,
   45.5882,       732,
   45.6083,       692,
   45.6285,       711,
   45.6487,       710,
   45.6688,       705,
    45.689,       756,
   45.7092,       685,
   45.7294,       696,
   45.7495,       700,
   45.7697,       743,
   45.7899,       715,
     45.81,       748,
   45.8302,       708,
   45.8504,       711,
   45.8705,       688,
   45.8907,       672,
   45.9109,       664,
    45.931,       689,
   45.9512,       728,
   45.9714,       686,
   45.9915,       676,
   46.0117,       700,
   46.0319,       698,
    46.052,       705,
   46.0722,       724,
   46.0924,       750,
   46.1126,       726,
   46.1327,       722,
   46.1529,       690,
   46.1731,       675,
   46.1932,       644,
   46.2134,       682,
   46.2336,       686,
   46.2537,       687,
   46.2739,       628,
   46.2941,       689,
   46.3142,       689,
   46.3344,       738,
   46.3546,       700,
   46.3747,       672,
   46.3949,       673,
   46.4151,       724,
   46.4352,       615,
   46.4554,       744,
   46.4756,       693,
   46.4958,       684,
   46.5159,       689,
   46.5361,       682,
   46.5563,       724,
   46.5764,       668,
   46.5966,       694,
   46.6168,       722,
   46.6369,       701,
   46.6571,       687,
   46.6773,       704,
   46.6974,       690,
   46.7176,       708,
   46.7378,       674,
   46.7579,       658,
   46.7781,       696,
   46.7983,       680,
   46.8185,       684,
   46.8386,       687,
   46.8588,       670,
    46.879,       744,
   46.8991,       676,
   46.9193,       707,
   46.9395,       707,
   46.9596,       738,
   46.9798,       685,
        47,       691,
   47.0201,       667,
   47.0403,       697,
   47.0605,       728,
   47.0806,       661,
   47.1008,       723,
    47.121,       659,
   47.1411,       741,
   47.1613,       673,
   47.1815,       659,
   47.2017,       717,
   47.2218,       707,
    47.242,       663,
   47.2622,       666,
   47.2823,       703,
   47.3025,       724,
   47.3227,       676,
   47.3428,       655,
    47.363,       688,
   47.3832,       691,
   47.4033,       674,
   47.4235,       688,
   47.4437,       615,
   47.4638,       739,
    47.484,       669,
   47.5042,       694,
   47.5243,       695,
   47.5445,       626,
   47.5647,       590,
   47.5849,       677,
    47.605,       686,
   47.6252,       680,
   47.6454,       689,
   47.6655,       703,
   47.6857,       681,
   47.7059,       702,
    47.726,       664,
   47.7462,       678,
   47.7664,       671,
   47.7865,       640,
   47.8067,       697,
   47.8269,       684,
    47.847,       712,
   47.8672,       686,
   47.8874,       659,
   47.9076,       659,
   47.9277,       676,
   47.9479,       694,
   47.9681,       676,
   47.9882,       696,
   48.0084,       630,
   48.0286,       663,
   48.0487,       684,
   48.0689,       615,
   48.0891,       653,
   48.1092,       672,
   48.1294,       683,
   48.1496,       657,
   48.1697,       708,
   48.1899,       713,
   48.2101,       677,
   48.2302,       706,
   48.2504,       665,
   48.2706,       669,
   48.2908,       692,
   48.3109,       632,
   48.3311,       687,
   48.3513,       620,
   48.3714,       673,
   48.3916,       622,
   48.4118,       665,
   48.4319,       677,
   48.4521,       696,
   48.4723,       656,
   48.4924,       678,
   48.5126,       692,
   48.5328,       648,
   48.5529,       683,
   48.5731,       636,
   48.5933,       633,
   48.6134,       662,
   48.6336,       670,
   48.6538,       650,
    48.674,       653,
   48.6941,       644,
   48.7143,       728,
   48.7345,       664,
   48.7546,       646,
   48.7748,       656,
    48.795,       663,
   48.8151,       709,
   48.8353,       708,
   48.8555,       728,
   48.8756,       657,
   48.8958,       736,
    48.916,       709,
   48.9361,       712,
   48.9563,       753,
   48.9765,       680,
   48.9967,       688,
   49.0168,       703,
    49.037,       697,
   49.0572,       669,
   49.0773,       711,
   49.0975,       708,
   49.1177,       659,
   49.1378,       719,
    49.158,       645,
   49.1782,       701,
   49.1983,       653,
   49.2185,       714,
   49.2387,       702,
   49.2588,       661,
    49.279,       682,
   49.2992,       683,
   49.3193,       675,
   49.3395,       702,
   49.3597,       715,
   49.3799,       676,
      49.4,       713,
   49.4202,       694,
   49.4404,       673,
   49.4605,       717,
   49.4807,       714,
   49.5009,       657,
    49.521,       717,
   49.5412,       668,
   49.5614,       669,
   49.5815,       674,
   49.6017,       718,
   49.6219,       720,
    49.642,       702,
   49.6622,       673,
   49.6824,       697,
   49.7025,       678,
   49.7227,       682,
   49.7429,       719,
   49.7631,       701,
   49.7832,       683,
   49.8034,       721,
   49.8236,       721,
   49.8437,       717,
   49.8639,       671,
   49.8841,       701,
   49.9042,       739,
   49.9244,       739,
   49.9446,       687,
   49.9647,       717,
   49.9849,       696,
   50.0051,       747,
   50.0252,       761,
   50.0454,       702,
   50.0656,       756,
   50.0858,       739,
   50.1059,       771,
   50.1261,       807,
   50.1463,       868,
   50.1664,       823,
   50.1866,       856,
   50.2068,       866,
   50.2269,       876,
   50.2471,       825,
   50.2673,       882,
   50.2874,       894,
   50.3076,       974,
   50.3278,      1033,
   50.3479,      1079,
   50.3681,      1120,
   50.3883,      1161,
   50.4084,      1250,
   50.4286,      1357,
   50.4488,      1417,
    50.469,      1638,
   50.4891,      2114,
   50.5093,      2958,
   50.5295,      4759,
   50.5496,      7817,
   50.5698,     10907,
     50.59,     11976,
   50.6101,      9524,
   50.6303,      6440,
   50.6505,      4766,
   50.6706,      4620,
   50.6908,      5662,
    50.711,      6443,
   50.7311,      6308,
   50.7513,      4805,
   50.7715,      3050,
   50.7917,      2220,
   50.8118,      1657,
    50.832,      1358,
   50.8522,      1204,
   50.8723,      1101,
   50.8925,      1012,
   50.9127,       989,
   50.9328,       920,
    50.953,       834,
   50.9732,       844,
   50.9933,       835,
   51.0135,       881,
   51.0337,       805,
   51.0538,       769,
    51.074,       762,
   51.0942,       738,
   51.1143,       716,
   51.1345,       823,
   51.1547,       758,
   51.1749,       756,
    51.195,       738,
   51.2152,       712,
   51.2354,       709,
   51.2555,       697,
   51.2757,       686,
   51.2959,       733,
    51.316,       734,
   51.3362,       689,
   51.3564,       713,
   51.3765,       704,
   51.3967,       690,
   51.4169,       709,
    51.437,       626,
   51.4572,       677,
   51.4774,       641,
   51.4975,       661,
   51.5177,       693,
   51.5379,       674,
   51.5581,       671,
   51.5782,       704,
   51.5984,       629,
   51.6186,       674,
   51.6387,       670,
   51.6589,       658,
   51.6791,       669,
   51.6992,       707,
   51.7194,       687,
   51.7396,       657,
   51.7597,       662,
   51.7799,       691,
   51.8001,       649,
   51.8202,       674,
   51.8404,       694,
   51.8606,       638,
   51.8808,       651,
   51.9009,       641,
   51.9211,       654,
   51.9413,       638,
   51.9614,       703,
   51.9816,       649,
   52.0018,       668,
   52.0219,       630,
   52.0421,       662,
   52.0623,       656,
   52.0824,       699,
   52.1026,       715,
   52.1228,       656,
   52.1429,       645,
   52.1631,       671,
   52.1833,       703,
   52.2034,       679,
   52.2236,       644,
   52.2438,       638,
    52.264,       687,
   52.2841,       644,
   52.3043,       675,
   52.3245,       668,
   52.3446,       654,
   52.3648,       674,
    52.385,       679,
   52.4051,       673,
   52.4253,       611,
   52.4455,       654,
   52.4656,       705,
   52.4858,       644,
    52.506,       687,
   52.5261,       611,
   52.5463,       653,
   52.5665,       640,
   52.5866,       634,
   52.6068,       709,
    52.627,       598,
   52.6472,       669,
   52.6673,       631,
   52.6875,       657,
   52.7077,       668,
   52.7278,       610,
    52.748,       677,
   52.7682,       656,
   52.7883,       713,
   52.8085,       683,
   52.8287,       657,
   52.8488,       689,
    52.869,       646,
   52.8892,       659,
   52.9093,       676,
   52.9295,       641,
   52.9497,       677,
   52.9699,       629,
     52.99,       652,
   53.0102,       665,
   53.0304,       713,
   53.0505,       587,
   53.0707,       646,
   53.0909,       648,
    53.111,       612,
   53.1312,       678,
   53.1514,       648,
   53.1715,       609,
   53.1917,       639,
   53.2119,       673,
    53.232,       690,
   53.2522,       651,
   53.2724,       645,
   53.2925,       616,
   53.3127,       638,
   53.3329,       643,
   53.3531,       696,
   53.3732,       608,
   53.3934,       672,
   53.4136,       635,
   53.4337,       651,
   53.4539,       717,
   53.4741,       661,
   53.4942,       642,
   53.5144,       653,
   53.5346,       657,
   53.5547,       637,
   53.5749,       647,
   53.5951,       652,
   53.6152,       664,
   53.6354,       655,
   53.6556,       655,
   53.6757,       671,
   53.6959,       651,
   53.7161,       637,
   53.7363,       685,
   53.7564,       635,
   53.7766,       620,
   53.7968,       669,
   53.8169,       644,
   53.8371,       631,
   53.8573,       661,
   53.8774,       681,
   53.8976,       654,
   53.9178,       649,
   53.9379,       632,
   53.9581,       627,
   53.9783,       679,
   53.9984,       629,
   54.0186,       631,
   54.0388,       647,
    54.059,       652,
   54.0791,       664,
   54.0993,       628,
   54.1195,       636,
   54.1396,       654,
   54.1598,       647,
     54.18,       688,
   54.2001,       595,
   54.2203,       689,
   54.2405,       639,
   54.2606,       650,
   54.2808,       693,
    54.301,       601,
   54.3211,       663,
   54.3413,       649,
   54.3615,       663,
   54.3816,       662,
   54.4018,       636,
    54.422,       681,
   54.4422,       650,
   54.4623,       633,
   54.4825,       626,
   54.5027,       641,
   54.5228,       652,
    54.543,       640,
   54.5632,       605,
   54.5833,       662,
   54.6035,       634,
   54.6237,       681,
   54.6438,       641,
    54.664,       595,
   54.6842,       637,
   54.7043,       605,
   54.7245,       663,
   54.7447,       633,
   54.7648,       634,
    54.785,       613,
   54.8052,       607,
   54.8254,       659,
   54.8455,       633,
   54.8657,       624,
   54.8859,       625,
    54.906,       623,
   54.9262,       667,
   54.9464,       645,
   54.9665,       666,
   54.9867,       642,
   55.0069,       658,
    55.027,       651,
   55.0472,       646,
   55.0674,       622,
   55.0875,       651,
   55.1077,       638,
   55.1279,       685,
   55.1481,       637,
   55.1682,       636,
   55.1884,       616,
   55.2086,       631,
   55.2287,       599,
   55.2489,       635,
   55.2691,       634,
   55.2892,       647,
   55.3094,       625,
   55.3296,       657,
   55.3497,       627,
   55.3699,       658,
   55.3901,       687,
   55.4102,       593,
   55.4304,       629,
   55.4506,       649,
   55.4707,       636,
   55.4909,       616,
   55.5111,       649,
   55.5313,       646,
   55.5514,       668,
   55.5716,       588,
   55.5918,       626,
   55.6119,       645,
   55.6321,       649,
   55.6523,       652,
   55.6724,       636,
   55.6926,       664,
   55.7128,       635,
   55.7329,       629,
   55.7531,       624,
   55.7733,       602,
   55.7934,       619,
   55.8136,       667,
   55.8338,       621,
    55.854,       643,
   55.8741,       625,
   55.8943,       641,
   55.9145,       630,
   55.9346,       659,
   55.9548,       602,
    55.975,       653,
   55.9951,       635,
   56.0153,       657,
   56.0355,       629,
   56.0556,       614,
   56.0758,       636,
    56.096,       616,
   56.1161,       619,
   56.1363,       615,
   56.1565,       656,
   56.1766,       676,
   56.1968,       652,
    56.217,       619,
   56.2372,       669,
   56.2573,       579,
   56.2775,       645,
   56.2977,       588,
   56.3178,       624,
    56.338,       601,
   56.3582,       638,
   56.3783,       625,
   56.3985,       636,
   56.4187,       591,
   56.4388,       622,
    56.459,       600,
   56.4792,       653,
   56.4993,       623,
   56.5195,       634,
   56.5397,       666,
   56.5598,       653,
     56.58,       673,
   56.6002,       627,
   56.6204,       596,
   56.6405,       646,
   56.6607,       617,
   56.6809,       635,
    56.701,       649,
   56.7212,       670,
   56.7414,       603,
   56.7615,       658,
   56.7817,       599,
   56.8019,       585,
    56.822,       653,
   56.8422,       641,
   56.8624,       622,
   56.8825,       608,
   56.9027,       646,
   56.9229,       615,
   56.9431,       623,
   56.9632,       611,
   56.9834,       617,
   57.0036,       668,
   57.0237,       673,
   57.0439,       637,
   57.0641,       588,
   57.0842,       637,
   57.1044,       626,
   57.1246,       641,
   57.1447,       644,
   57.1649,       628,
   57.1851,       621,
   57.2052,       661,
   57.2254,       609,
   57.2456,       640,
   57.2657,       608,
   57.2859,       616,
   57.3061,       597,
   57.3263,       596,
   57.3464,       596,
   57.3666,       640,
   57.3868,       612,
   57.4069,       612,
   57.4271,       679,
   57.4473,       597,
   57.4674,       621,
   57.4876,       670,
   57.5078,       681,
   57.5279,       574,
   57.5481,       637,
   57.5683,       607,
   57.5884,       639,
   57.6086,       654,
   57.6288,       609,
   57.6489,       622,
   57.6691,       598,
   57.6893,       647,
   57.7095,       624,
   57.7296,       638,
   57.7498,       648,
     57.77,       618,
   57.7901,       642,
   57.8103,       624,
   57.8305,       632,
   57.8506,       679,
   57.8708,       634,
    57.891,       653,
   57.9111,       607,
   57.9313,       632,
   57.9515,       667,
   57.9716,       657,
   57.9918,       595,
    58.012,       621,
   58.0322,       617,
   58.0523,       670,
   58.0725,       594,
   58.0927,       622,
   58.1128,       642,
    58.133,       622,
   58.1532,       612,
   58.1733,       603,
   58.1935,       639,
   58.2137,       612,
   58.2338,       585,
    58.254,       601,
   58.2742,       621,
   58.2943,       639,
   58.3145,       600,
   58.3347,       623,
   58.3548,       618,
    58.375,       655,
   58.3952,       646,
   58.4154,       620,
   58.4355,       659,
   58.4557,       604,
   58.4759,       660,
    58.496,       590,
   58.5162,       663,
   58.5364,       646,
   58.5565,       605,
   58.5767,       641,
   58.5969,       611,
    58.617,       633,
   58.6372,       610,
   58.6574,       618,
   58.6775,       610,
   58.6977,       653,
   58.7179,       596,
    58.738,       631,
   58.7582,       598,
   58.7784,       661,
   58.7986,       586,
   58.8187,       640,
   58.8389,       588,
   58.8591,       611,
   58.8792,       655,
   58.8994,       583,
   58.9196,       575,
   58.9397,       605,
   58.9599,       623,
   58.9801,       627,
   59.0002,       618,
   59.0204,       633,
   59.0406,       594,
   59.0607,       639,
   59.0809,       645,
   59.1011,       600,
   59.1213,       640,
   59.1414,       617,
   59.1616,       616,
   59.1818,       599,
   59.2019,       642,
   59.2221,       630,
   59.2423,       600,
   59.2624,       619,
   59.2826,       580,
   59.3028,       628,
   59.3229,       644,
   59.3431,       618,
   59.3633,       643,
   59.3834,       628,
   59.4036,       601,
   59.4238,       599,
   59.4439,       618,
   59.4641,       688,
   59.4843,       598,
   59.5045,       630,
   59.5246,       647,
   59.5448,       650,
    59.565,       594,
   59.5851,       608,
   59.6053,       632,
   59.6255,       644,
   59.6456,       588,
   59.6658,       625,
    59.686,       619,
   59.7061,       568,
   59.7263,       618,
   59.7465,       631,
   59.7666,       606,
   59.7868,       595,
    59.807,       608,
   59.8271,       641,
   59.8473,       624,
   59.8675,       677,
   59.8877,       595,
   59.9078,       642,
    59.928,       630,
   59.9482,       595,
   59.9683,       586,
   59.9885,       571,
   60.0087,       616,
   60.0288,       664,
    60.049,       615,
   60.0692,       665,
   60.0893,       608,
   60.1095,       606,
   60.1297,       653,
   60.1498,       600,
     60.17,       597,
   60.1902,       621,
   60.2104,       636,
   60.2305,       622,
   60.2507,       636,
   60.2709,       685,
    60.291,       618,
   60.3112,       613,
   60.3314,       582,
   60.3515,       588,
   60.3717,       636,
   60.3919,       617,
    60.412,       610,
   60.4322,       655,
   60.4524,       617,
   60.4725,       662,
   60.4927,       617,
   60.5129,       641,
    60.533,       647,
   60.5532,       586,
   60.5734,       604,
   60.5936,       592,
   60.6137,       582,
   60.6339,       630,
   60.6541,       586,
   60.6742,       635,
   60.6944,       611,
   60.7146,       625,
   60.7347,       596,
   60.7549,       628,
   60.7751,       635,
   60.7952,       609,
   60.8154,       633,
   60.8356,       593,
   60.8557,       562,
   60.8759,       662,
   60.8961,       644,
   60.9163,       663,
   60.9364,       605,
   60.9566,       588,
   60.9768,       579,
   60.9969,       611,
   61.0171,       647,
   61.0373,       670,
   61.0574,       637,
   61.0776,       617,
   61.0978,       604,
   61.1179,       559,
   61.1381,       613,
   61.1583,       631,
   61.1784,       623,
   61.1986,       630,
   61.2188,       626,
   61.2389,       627,
   61.2591,       573,
   61.2793,       626,
   61.2995,       608,
   61.3196,       621,
   61.3398,       570,
     61.36,       600,
   61.3801,       600,
   61.4003,       613,
   61.4205,       604,
   61.4406,       633,
   61.4608,       631,
    61.481,       640,
   61.5011,       575,
   61.5213,       584,
   61.5415,       594,
   61.5616,       632,
   61.5818,       612,
    61.602,       624,
   61.6221,       607,
   61.6423,       627,
   61.6625,       571,
   61.6827,       597,
   61.7028,       631,
    61.723,       619,
   61.7432,       588,
   61.7633,       643,
   61.7835,       637,
   61.8037,       647,
   61.8238,       660,
    61.844,       621,
   61.8642,       598,
   61.8843,       616,
   61.9045,       617,
   61.9247,       631,
   61.9448,       581,
    61.965,       655,
   61.9852,       635,
   62.0054,       620,
   62.0255,       604,
   62.0457,       605,
   62.0659,       625,
    62.086,       628,
   62.1062,       666,
   62.1264,       628,
   62.1465,       672,
   62.1667,       616,
   62.1869,       614,
    62.207,       618,
   62.2272,       595,
   62.2474,       603,
   62.2675,       645,
   62.2877,       608,
   62.3079,       619,
    62.328,       618,
   62.3482,       595,
   62.3684,       571,
   62.3886,       624,
   62.4087,       597,
   62.4289,       657,
   62.4491,       574,
   62.4692,       626,
   62.4894,       591,
   62.5096,       611,
   62.5297,       629,
   62.5499,       624,
   62.5701,       626,
   62.5902,       592,
   62.6104,       587,
   62.6306,       626,
   62.6507,       622,
   62.6709,       599,
   62.6911,       573,
   62.7112,       579,
   62.7314,       599,
   62.7516,       627,
   62.7718,       663,
   62.7919,       605,
   62.8121,       638,
   62.8323,       631,
   62.8524,       646,
   62.8726,       682,
   62.8928,       594,
   62.9129,       614,
   62.9331,       650,
   62.9533,       586,
   62.9734,       612,
   62.9936,       619,
   63.0138,       619,
   63.0339,       609,
   63.0541,       640,
   63.0743,       562,
   63.0945,       595,
   63.1146,       602,
   63.1348,       627,
    63.155,       575,
   63.1751,       606,
   63.1953,       618,
   63.2155,       588,
   63.2356,       605,
   63.2558,       627,
    63.276,       608,
   63.2961,       614,
   63.3163,       657,
   63.3365,       629,
   63.3566,       622,
   63.3768,       598,
    63.397,       603,
   63.4171,       585,
   63.4373,       616,
   63.4575,       597,
   63.4777,       636,
   63.4978,       607,
    63.518,       558,
   63.5382,       569,
   63.5583,       634,
   63.5785,       575,
   63.5987,       585,
   63.6188,       613,
    63.639,       593,
   63.6592,       627,
   63.6793,       653,
   63.6995,       589,
   63.7197,       633,
   63.7398,       588,
     63.76,       604,
   63.7802,       630,
   63.8003,       611,
   63.8205,       618,
   63.8407,       641,
   63.8609,       572,
    63.881,       540,
   63.9012,       627,
   63.9214,       604,
   63.9415,       613,
   63.9617,       624,
   63.9819,       658,
    64.002,       641,
   64.0222,       601,
   64.0424,       590,
   64.0625,       594,
   64.0827,       571,
   64.1029,       554,
    64.123,       597,
   64.1432,       585,
   64.1634,       652,
   64.1836,       634,
   64.2037,       582,
   64.2239,       587,
   64.2441,       647,
   64.2642,       613,
   64.2844,       639,
   64.3046,       621,
   64.3247,       608,
   64.3449,       623,
   64.3651,       680,
   64.3852,       598,
   64.4054,       636,
   64.4256,       602,
   64.4457,       654,
   64.4659,       654,
   64.4861,       647,
   64.5062,       600,
   64.5264,       602,
   64.5466,       599,
   64.5668,       623,
   64.5869,       622,
   64.6071,       643,
   64.6273,       588,
   64.6474,       622,
   64.6676,       604,
   64.6878,       615,
   64.7079,       605,
   64.7281,       641,
   64.7483,       608,
   64.7684,       592,
   64.7886,       616,
   64.8088,       644,
   64.8289,       640,
   64.8491,       576,
   64.8693,       607,
   64.8894,       622,
   64.9096,       635,
   64.9298,       610,
     64.95,       583,
   64.9701,       620,
   64.9903,       624,
   65.0105,       623,
   65.0306,       588,
   65.0508,       588,
    65.071,       570,
   65.0911,       629,
   65.1113,       618,
   65.1315,       627,
   65.1516,       655,
   65.1718,       589,
    65.192,       607,
   65.2121,       660,
   65.2323,       628,
   65.2525,       613,
   65.2727,       642,
   65.2928,       625,
    65.313,       617,
   65.3332,       587,
   65.3533,       633,
   65.3735,       654,
   65.3937,       582,
   65.4138,       628,
    65.434,       624,
   65.4542,       611,
   65.4743,       634,
   65.4945,       596,
   65.5147,       607,
   65.5348,       606,
    65.555,       554,
   65.5752,       603,
   65.5953,       648,
   65.6155,       645,
   65.6357,       602,
   65.6559,       615,
    65.676,       602,
   65.6962,       632,
   65.7164,       620,
   65.7365,       640,
   65.7567,       612,
   65.7769,       621,
    65.797,       658,
   65.8172,       629,
   65.8374,       623,
   65.8575,       620,
   65.8777,       609,
   65.8979,       603,
    65.918,       611,
   65.9382,       623,
   65.9584,       615,
   65.9786,       631,
   65.9987,       623,
   66.0189,       614,
   66.0391,       618,
   66.0592,       606,
   66.0794,       656,
   66.0996,       660,
   66.1197,       637,
   66.1399,       714,
   66.1601,       634,
   66.1802,       638,
   66.2004,       601,
   66.2206,       594,
   66.2407,       586,
   66.2609,       668,
   66.2811,       615,
   66.3012,       627,
   66.3214,       559,
   66.3416,       596,
   66.3618,       606,
   66.3819,       570,
   66.4021,       622,
   66.4223,       667,
   66.4424,       625,
   66.4626,       558,
   66.4828,       598,
   66.5029,       636,
   66.5231,       606,
   66.5433,       628,
   66.5634,       660,
   66.5836,       630,
   66.6038,       642,
   66.6239,       580,
   66.6441,       654,
   66.6643,       618,
   66.6844,       630,
   66.7046,       668,
   66.7248,       615,
    66.745,       665,
   66.7651,       626,
   66.7853,       630,
   66.8055,       597,
   66.8256,       613,
   66.8458,       672,
    66.866,       617,
   66.8861,       607,
   66.9063,       638,
   66.9265,       558,
   66.9466,       574,
   66.9668,       651,
    66.987,       592,
   67.0071,       548,
   67.0273,       579,
   67.0475,       607,
   67.0677,       597,
   67.0878,       609,
    67.108,       634,
   67.1282,       661,
   67.1483,       624,
   67.1685,       589,
   67.1887,       624,
   67.2088,       583,
    67.229,       577,
   67.2492,       586,
   67.2693,       632,
   67.2895,       632,
   67.3097,       590,
   67.3298,       587,
     67.35,       597,
   67.3702,       604,
   67.3903,       530,
   67.4105,       638,
   67.4307,       621,
   67.4509,       569,
    67.471,       563,
   67.4912,       619,
   67.5114,       638,
   67.5315,       615,
   67.5517,       605,
   67.5719,       597,
    67.592,       613,
   67.6122,       627,
   67.6324,       571,
   67.6525,       594,
   67.6727,       628,
   67.6929,       612,
    67.713,       649,
   67.7332,       631,
   67.7534,       584,
   67.7735,       640,
   67.7937,       621,
   67.8139,       615,
   67.8341,       638,
   67.8542,       609,
   67.8744,       585,
   67.8946,       572,
   67.9147,       607,
   67.9349,       620,
   67.9551,       602,
   67.9752,       578,
   67.9954,       605,
   68.0156,       594,
   68.0357,       647,
   68.0559,       647,
   68.0761,       626,
   68.0962,       594,
   68.1164,       548,
   68.1366,       592,
   68.1568,       600,
   68.1769,       606,
   68.1971,       626,
   68.2173,       610,
   68.2374,       606,
   68.2576,       559,
   68.2778,       598,
   68.2979,       620,
   68.3181,       618,
   68.3383,       600,
   68.3584,       663,
   68.3786,       602,
   68.3988,       618,
   68.4189,       603,
   68.4391,       637,
   68.4593,       621,
   68.4794,       667,
   68.4996,       597,
   68.5198,       633,
     68.54,       632,
   68.5601,       593,
   68.5803,       621,
   68.6005,       622,
   68.6206,       611,
   68.6408,       607,
    68.661,       652,
   68.6811,       594,
   68.7013,       651,
   68.7215,       589,
   68.7416,       633,
   68.7618,       628,
    68.782,       605,
   68.8021,       580,
   68.8223,       611,
   68.8425,       594,
   68.8626,       624,
   68.8828,       592,
    68.903,       622,
   68.9232,       591,
   68.9433,       629,
   68.9635,       579,
   68.9837,       584,
   69.0038,       625,
    69.024,       625,
   69.0442,       626,
   69.0643,       622,
   69.0845,       622,
   69.1047,       653,
   69.1248,       624,
    69.145,       602,
   69.1652,       589,
   69.1853,       613,
   69.2055,       564,
   69.2257,       623,
   69.2459,       633,
    69.266,       577,
   69.2862,       620,
   69.3064,       615,
   69.3265,       605,
   69.3467,       616,
   69.3669,       589,
    69.387,       620,
   69.4072,       557,
   69.4274,       626,
   69.4475,       586,
   69.4677,       623,
   69.4879,       586,
    69.508,       688,
   69.5282,       625,
   69.5484,       570,
   69.5685,       625,
   69.5887,       647,
   69.6089,       630,
   69.6291,       593,
   69.6492,       631,
   69.6694,       613,
   69.6896,       599,
   69.7097,       615,
   69.7299,       625,
   69.7501,       621,
   69.7702,       594,
   69.7904,       591,
   69.8106,       615,
   69.8307,       656,
   69.8509,       596,
   69.8711,       600,
   69.8912,       608,
   69.9114,       615,
   69.9316,       613,
   69.9517,       615,
   69.9719,       636,
   69.9921,       568,
   70.0123,       613,
   70.0324,       622,
   70.0526,       622,
   70.0728,       583,
   70.0929,       635,
   70.1131,       600,
   70.1333,       605,
   70.1534,       631,
   70.1736,       663,
   70.1938,       628,
   70.2139,       624,
   70.2341,       593,
   70.2543,       627,
   70.2744,       656,
   70.2946,       613,
   70.3148,       656,
    70.335,       581,
   70.3551,       599,
   70.3753,       581,
   70.3955,       601,
   70.4156,       646,
   70.4358,       589,
    70.456,       617,
   70.4761,       577,
   70.4963,       588,
   70.5165,       567,
   70.5366,       647,
   70.5568,       632,
    70.577,       647,
   70.5971,       635,
   70.6173,       638,
   70.6375,       650,
   70.6576,       603,
   70.6778,       649,
    70.698,       654,
   70.7182,       611,
   70.7383,       568,
   70.7585,       603,
   70.7787,       604,
   70.7988,       623,
    70.819,       612,
   70.8392,       616,
   70.8593,       571,
   70.8795,       623,
   70.8997,       609,
   70.9198,       625,
     70.94,       615,
   70.9602,       592,
   70.9803,       641,
   71.0005,       601,
   71.0207,       595,
   71.0409,       614,
    71.061,       623,
   71.0812,       629,
   71.1014,       594,
   71.1215,       625,
   71.1417,       628,
   71.1619,       635,
    71.182,       551,
   71.2022,       624,
   71.2224,       643,
   71.2425,       610,
   71.2627,       655,
   71.2829,       647,
    71.303,       608,
   71.3232,       600,
   71.3434,       621,
   71.3635,       614,
   71.3837,       667,
   71.4039,       672,
   71.4241,       657,
   71.4442,       636,
   71.4644,       622,
   71.4846,       642,
   71.5047,       591,
   71.5249,       635,
   71.5451,       610,
   71.5652,       632,
   71.5854,       622,
   71.6056,       599,
   71.6257,       634,
   71.6459,       660,
   71.6661,       683,
   71.6862,       584,
   71.7064,       630,
   71.7266,       643,
   71.7467,       647,
   71.7669,       632,
   71.7871,       631,
   71.8073,       675,
   71.8274,       665,
   71.8476,       604,
   71.8678,       626,
   71.8879,       655,
   71.9081,       586,
   71.9283,       638,
   71.9484,       653,
   71.9686,       610,
   71.9888,       618,
   72.0089,       620,
   72.0291,       661,
   72.0493,       582,
   72.0694,       655,
   72.0896,       588,
   72.1098,       633,
     72.13,       576,
   72.1501,       645,
   72.1703,       631,
   72.1905,       625,
   72.2106,       661,
   72.2308,       628,
    72.251,       656,
   72.2711,       638,
   72.2913,       645,
   72.3115,       637,
   72.3316,       627,
   72.3518,       666,
    72.372,       626,
   72.3921,       656,
   72.4123,       628,
   72.4325,       628,
   72.4526,       599,
   72.4728,       661,
    72.493,       633,
   72.5132,       617,
   72.5333,       682,
   72.5535,       643,
   72.5737,       644,
   72.5938,       602,
    72.614,       645,
   72.6342,       641,
   72.6543,       623,
   72.6745,       626,
   72.6947,       571,
   72.7148,       640,
    72.735,       630,
   72.7552,       624,
   72.7753,       622,
   72.7955,       657,
   72.8157,       621,
   72.8358,       651,
    72.856,       638,
   72.8762,       643,
   72.8964,       608,
   72.9165,       598,
   72.9367,       691,
   72.9569,       643,
    72.977,       651,
   72.9972,       667,
   73.0174,       642,
   73.0375,       650,
   73.0577,       653,
   73.0779,       649,
    73.098,       630,
   73.1182,       678,
   73.1384,       633,
   73.1585,       628,
   73.1787,       651,
   73.1989,       631,
   73.2191,       660,
   73.2392,       655,
   73.2594,       682,
   73.2796,       659,
   73.2997,       673,
   73.3199,       635,
   73.3401,       640,
   73.3602,       645,
   73.3804,       638,
   73.4006,       628,
   73.4207,       675,
   73.4409,       693,
   73.4611,       649,
   73.4812,       640,
   73.5014,       681,
   73.5216,       733,
   73.5417,       697,
   73.5619,       688,
   73.5821,       645,
   73.6023,       628,
   73.6224,       641,
   73.6426,       649,
   73.6628,       656,
   73.6829,       680,
   73.7031,       696,
   73.7233,       665,
   73.7434,       664,
   73.7636,       699,
   73.7838,       757,
   73.8039,       836,
   73.8241,       763,
   73.8443,       818,
   73.8644,       870,
   73.8846,       822,
   73.9048,       857,
   73.9249,       880,
   73.9451,       896,
   73.9653,       897,
   73.9855,       918,
   74.0056,       934,
   74.0258,       943,
    74.046,      1016,
   74.0661,      1034,
   74.0863,      1225,
   74.1065,      1357,
   74.1266,      1549,
   74.1468,      1910,
    74.167,      2751,
   74.1871,      4325,
   74.2073,      7220,
   74.2275,     10788,
   74.2476,     12796,
   74.2678,     10899,
    74.288,      6964,
   74.3082,      4395,
   74.3283,      2902,
   74.3485,      2328,
   74.3687,      2208,
   74.3888,      2432,
    74.409,      3352,
   74.4292,      4851,
   74.4493,      6446,
   74.4695,      6510,
   74.4897,      5326,
   74.5098,      3551,
     74.53,      2412,
   74.5502,      1695,
   74.5703,      1340,
   74.5905,      1192,
   74.6107,       983,
   74.6308,       925,
    74.651,       893,
   74.6712,       852,
   74.6914,       876,
   74.7115,       848,
   74.7317,       802,
   74.7519,       760,
    74.772,       744,
   74.7922,       768,
   74.8124,       783,
   74.8325,       716,
   74.8527,       730,
   74.8729,       694,
    74.893,       714,
   74.9132,       716,
   74.9334,       667,
   74.9535,       627,
   74.9737,       675,
   74.9939,       676,
    75.014,       666,
   75.0342,       725,
   75.0544,       704,
   75.0746,       689,
   75.0947,       699,
   75.1149,       654,
   75.1351,       671,
   75.1552,       675,
   75.1754,       666,
   75.1956,       663,
   75.2157,       649,
   75.2359,       647,
   75.2561,       707,
   75.2762,       662,
   75.2964,       657,
   75.3166,       657,
   75.3367,       677,
   75.3569,       660,
   75.3771,       660,
   75.3973,       644,
   75.4174,       618,
   75.4376,       634,
   75.4578,       661,
   75.4779,       647,
   75.4981,       667,
   75.5183,       651,
   75.5384,       632,
   75.5586,       616,
   75.5788,       678,
   75.5989,       653,
   75.6191,       659,
   75.6393,       615,
   75.6594,       619,
   75.6796,       659,
   75.6998,       637,
   75.7199,       655,
   75.7401,       621,
   75.7603,       656,
   75.7805,       638,
   75.8006,       663,
   75.8208,       662,
    75.841,       656,
   75.8611,       644,
   75.8813,       619,
   75.9015,       650,
   75.9216,       620,
   75.9418,       612,
    75.962,       596,
   75.9821,       684,
   76.0023,       618,
   76.0225,       657,
   76.0426,       619,
   76.0628,       646,
    76.083,       649,
   76.1032,       660,
   76.1233,       624,
   76.1435,       629,
   76.1637,       652,
   76.1838,       588,
    76.204,       637,
   76.2242,       637,
   76.2443,       613,
   76.2645,       634,
   76.2847,       652,
   76.3048,       645,
    76.325,       608,
   76.3452,       663,
   76.3653,       607,
   76.3855,       645,
   76.4057,       629,
   76.4258,       669,
    76.446,       621,
   76.4662,       649,
   76.4864,       630,
   76.5065,       640,
   76.5267,       657,
   76.5469,       628,
    76.567,       641,
   76.5872,       614,
   76.6074,       605,
   76.6275,       646,
   76.6477,       620,
   76.6679,       637,
    76.688,       636,
   76.7082,       583,
   76.7284,       633,
   76.7485,       666,
   76.7687,       648,
   76.7889,       635,
    76.809,       657,
   76.8292,       654,
   76.8494,       650,
   76.8696,       636,
   76.8897,       615,
   76.9099,       637,
   76.9301,       647,
   76.9502,       671,
   76.9704,       616,
   76.9906,       628,
   77.0107,       587,
   77.0309,       631,
   77.0511,       651,
   77.0712,       633,
   77.0914,       633,
   77.1116,       620,
   77.1317,       631,
   77.1519,       594,
   77.1721,       626,
   77.1923,       624,
   77.2124,       615,
   77.2326,       625,
   77.2528,       642,
   77.2729,       631,
   77.2931,       581,
   77.3133,       621,
   77.3334,       599,
   77.3536,       618,
   77.3738,       635,
   77.3939,       638,
   77.4141,       577,
   77.4343,       654,
   77.4544,       651,
   77.4746,       625,
   77.4948,       624,
   77.5149,       664,
   77.5351,       605,
   77.5553,       626,
   77.5755,       649,
   77.5956,       582,
   77.6158,       644,
    77.636,       651,
   77.6561,       631,
   77.6763,       628,
   77.6965,       611,
   77.7166,       625,
   77.7368,       628,
    77.757,       603,
   77.7771,       638,
   77.7973,       629,
   77.8175,       617,
   77.8376,       612,
   77.8578,       642,
    77.878,       631,
   77.8981,       606,
   77.9183,       597,
   77.9385,       626,
   77.9587,       611,
   77.9788,       631,
    77.999,       655,
