;RAW4.00
[RawHeader]
Date=11/26/2025
EstimatedTotalTime=426.6
FurtherDQLReading=0
HardwareIndicator=65519
MeasuredTotalTime=4.32956
MeasurementFlag=1
NumberOfMeasuredRanges=1
NumberOfRanges=1
Time=07:32:22

[VarInfo]
Type=USER
Flags=0
Value=Lab Manager

[VarInfo]
Type=SAMPLEID
Flags=0
Value=Commander Sample ID

[VarInfo]
Type=COMMENT
Flags=0
Value=

[VarInfo]
Type=UTF
Flags=0
Value=

[VarInfo]
Type=CREATOR
Flags=0
Value=V5Converter

[VarInfo]
Type=CREATOR_VERSION
Flags=0
Value=4.4.16.0

[HardwareConfiguration]
AbsorptionFactor=9999
ActivateAbsorber=0
Alpha1=1.5406
Alpha2=1.54439
AlphaAverage=1.54184
AlphaRatio=0.5
Analyzer=0
Anode=Cu
AntiScatteringSlit=9999
BeamOpticsFlags=0
Beta=1.39222
BetaRelativeIntensity=0
DeactivateAbsorber=0
DetectorSlit=9999
DivergenceSlit=9999
GoniometerControl=0
GoniometerDiameter=282
GoniometerModel=256
GoniometerStage=7
Monochromator=0
NearSampleSlit=9999
PrimarySollerSlit=9999
SampleChanger=0
SecondSollerSlit=9999
SynchronousAxis=0
ThinFilmAttachment=9999
WaveUnit=A

[RangeHeader]
ActuallyUsedLambda=1.54184
AdditionalDetectorMask=257
DataRecordLength=4
DelayTime=0
DisplayPlaneNumber=0
EstimatedScanTime=427
ExtraParametersMask=0
GeneratorCurrent=10
GeneratorVoltage=30
Increment=0.0201685
Increment3=0
NumberOfCompletedData=1885
NumberOfCounts=1
NumberOfDetectors=0
NumberOfDrives=3
NumberOfEncoderDrives=0
NumberOfMeasuredData=1885
NumberOfVaryingParameters=0
RangeStartTime=0
RotationSpeed=0
ScanMode=1
ScanType=Locked Coupled
SimulatedMeasConditions=0
SlitChangerIn=0
SmootingWidth=0
Start=40.0015
Steps=1885
SynchronousRotation=0
Time=33

[VarInfo]
Type=PSD_DISCRIM
Flags=0
Value=0.11;0.5

[VarInfo]
Type=OPTICS_V5
Flags=0
Value=H4sIAAAAAAAEAO1d63KjOhJ+Fda/zqmtBIPtXKaITzm2J+OaOHbFTnKmtrZcBORYZzC4AOey//d99hl2X2x1QViIS8C3JBN+TCaodWm6+2vUUkfS/nieW9IjcD3o2GcV5bBakYBtOCa0H84qS396oBxV/mhqF44NnTnwgdt25gvHBrbf0X1dQq1t78uzB88qM99ffJHlp6enw6faoeM+yGq1qsh/9i9HxgzM9QNoe75uG6AStjJfb1WRbqEH7y1wpc/BWWXFR0joAM9w4cInL/Bj4UHLsSW+3oXrLBc9NBZ6t3Pgojcb3P8FDH+o+7OzitwBj9AAMt+CrxUfl1Lblu55QRehTORzoM8XqLDt2L4ObeBy/coBc6yHluEvdYtxoR6o1ePT02O5h8TkLue4tzhrTW2EZGjqqBswQr3oFvyXjl+9OdUtD2hyGln7c259hcAyrwHqHhq4EDFpA/KbJ8lNjfKD1ToCFipvdm00JDA1OUbR6Btwou9Ab2HpL824AjQ5tXK8m+bF4OrHhPzodEft64TGrBVWDOsoPhpP1bBWhrxWvISy1r0hIUP+4r8skMLHrm78xG8sGODQhXPdfSHkZBMMakgD9GxISBvSeHkPOIFIQeOidilHx44baRI9r5mSRmyEDSxUYBJZ3blu/xy4JnCvAfYzAL0wsdX3b8s5NVnMwIfj6+8T9KPV/l7IxHm5Jhp5z0OvBh9BE+kGCS98DAk920dCZMIVSikeHA9SJulgmhwp1bAq2ZMXfZT4B2LSAxc+QFu3ogSlwl6OWi7Ssb/0moPwnSLFGmsYPPedJdIj0qJQrgWE0MJ5JCOdEXICmjFtjmnJUA7J0tRxpRHQLUBtYA3AytxYcejGiMm4JZa46kmmLG0LrhEWBa3xcus++8A2MZDfDYZpCWdMkQKtj5nwHfcltGVFk+OFGseMJxH2qHoYWND7cnJosmJN5ku1uCnh1+H65qyTKx3Y545jAR1NEG5s6BPpdiDSG56bXcI59IlYwiKvWdVk7knrgKm+tPxb3VoCboigVyQ96CPXTshnFewlKri/oQta5l9LD8GnYEuZYx67mbHTJoqe6ZblPK0cjVCOarZnwPgJzFUVVqC1ESPOHKsWvx33pNH5Zl7erhEyxkg2xVq1lr7TdoHug6HrLIDrvzAWEyiR9/eIRfdMhLKr5fweuE21rslCEdaQRS08UPF//xMyUSUc9B0TNG8Quqbos4xMnTwz90Y+PzEHluy7tuWt5HgP/ND5vNXOHBXjLvaN2aNbYuh5A79Evm3IJvErCL6JJ23LP418rD3OPSHRTOHDEjnla/gw85sIdabECnU0BoKwUKWYS+vrz5fAfvBnTbXRwKJhj2nOjrJISkNktZevObqMVm/q5DL4SnFwGS02cm5pFninPwKqkpa1mOmKYIUieVuWOJh2nCVqyWzxf//ehzWm2Nxw9uJBQ7dIeQJnTA/KYaNePXrNFtfo7ca2MPfItOjcf/WMZelYS+paugfVBtErK9H60Ibz5bx5oBwenx4fndaUWv3kSK0pjePu32vVE4S4oAZGIvklvWZQ4W0Rs4b0UpC0Rk/7QJiajTD10yOsXjvdJsRYdyXGNhLfFkDGuto1yh6Bqz+IoV6M/ulxppzUt4kz1l2Js43EtwWcsa52jLNz4OupIMPET46w2qmqqttD2Kq7EmEbiW9jhK262jHCrvGaRirECHVXGHuvCFutth02NsJWrKMSVWsKbh08xTrZCZK+OsbSG7gQ2D5ZHRSgJJK3tspG1g4H057tH9XfH6CibEVXr/OjKbkXhfRCBYDfqOeDOWLs0nmABl3VvJn0rm5bl73OpP2tN9TkFYkJfAye/WbPftQtiMQzg4uVjCJaIvW07+CFjI1lEf6uyTEWsnm67F2lsnIJbSARW0kbWtlk6OEgY+yhA20/e3B1k8GZLoaD0auqCHeKD6S58wgk35HmwJjpNrYKCTmTxd/SeKxl8/ienF2WXefzdFk9bOTm6N5Lz546UqiqhAVciZbr3FOQY3BWIVUkVBrdJr+ZtC6H31rRcrGRhEeyyEjkXXKxo0bYURPZUVPYUbPYUQuzEywL8PxEyoQBQloib5PW7UUWe0HrokySmCrg8D78PeybkkWGzrvjVjIvuH4+FiIbUQEDqBXeyxN46LJSkY3uZbffvRqnSMV2TCAFbaXVSDlkQmfBvNq4EkHsASVZZdetcW+QpTTSOp+8YlOLgL9pYnk4ToQicvl10J4MrpMZJONJkeZyfMe6Ed+xvgA2skTfcYU8TFacvPmcsQFLZ8dr7r82tXQiP3O7dSw/voYXlO4q5vl5u6WEjcypLxqFfRNqVSHyCL4FKaFHctihVBMCjFp1f7FErbF+MBEXRsEvZLo55TW19tJ1sT+LmlpQuitTm7f2YWpolHD6sQ1TaySFsh/E0uKy2LulDZ0nkgHOmxQp25WV3aUEnW+xcHMnRJr5lluqhymm+EkWW+4491hde7Ul3ssWbV9+7YtfJA0UTQyNGXBfyVbbPA8ud74bklUw60j9YgWfilQ/I4dzraYmBmuZ2QhiKJW9qxqLdLI3h6IxR/YytzAXT1vD42MIIXVJnC4nR8cylyaJ7OZRhxZeJcCPHu2eWH2ZQFkmUJYJlGUCZZlA+fE2xcsEyvezJV4mUP6aCCsTKN8TxsoEyl8VZ2UC5XvCWZlA+ashrEygfE8IKxMoywTKMoGyTKAsEyjLBMoygbJMoCwTKMsEyjKBskygLBMoywTKMoGyTKAsEyjLBMoygbJMoHzr+KNMoCwTKD9tAiXLkUS/iumT7KzT+Cmg4tm7GScqd+cL/4UkG4arGcVOT+72h4PRhP4scnoyGTg0xcTzk2U+BzLzcGMl7XBjde+HGw8WbefceR5MR45lATfhiGNKyDjkmKsg/WbotmTQQ8ElNJZEifQE7N/XgX9k+LhXSSBnuYaE6hunwkb7FPSZfOxxRGTIPPKL8PePe2KymphYK0bAR+scevtxXAin6Q2diJrmRGpv50S+wmdgEkNlcw/RmVjQz3IliCz1U2CAaRv4kdXICV5EJGb6ELHy5h6E61FQZYr/YA2o98gntQ/sOmq5XMfxeudlE7OmVzSsTJpYMhZe0hcRy1SR/jGf/zPDjH/DR/7fA2QfErQ9hAVgol98R9I5hWWaMq5mhBds4KeJUp0oaQYcIb5mwIVtN52ZmPP5qH/5US30lx930PRnYm4HLtvZktP8/WxBxzgL44DNsuvjPeVdZqh+7nWGuODWWWeI97KTtI5vABumgB1a+LnBszXslNBZz+i3gpzt3wSirjOzGenzhQXuZgBYY/QC/KUgIkkjH65UJ0ChmfamMj+F+lCxGJtFbxiJ1dIisfpGkRjhMR6HvT9h3thLD5hkeHHgLInKwm1g17oJl16CldWVYB+fXrg3mE494KdZfesZevz3Iay2B1ceYybnbh1ywVU1LSlVPTypn6qNRkNN8LvHjcOTRv24dqQqvK8VhNAM7mETbitc+w7DEUCRgJl9i2FYh7v9roNCXwNnMmzhLkORh4SYKLFGsfsMwz42ifVFRj70nYaF9FrM/4zwzYaj4jcbRuW787sNw+F2cbvhyRss3uHlOks3wMyxzMQtgMsX+xm8pBxzcfnj6s/ujy654bCjSsOZ7olX4OYEsRyOEwezQMpa3mDWKOO8X3k4Wj2jProvYAvX6KYzLmrzl7v28CTPUlxNiU9Yi8wL0ecUu0XdWrmWfniNJk2pxn6HJHazGl4xZ9PpjyfkXwFHw4ba6R6gstmscZebgP09bgIKCIswkLYN2N/zNmAmj6JSs3YC+59rJ1Cp53Ii1c+wFVhGSkUjpbRAqXF4dHrSUJRqPWmBqqEcHldP68dqfQeB0sontAHGieA9hcKI4+SmzLSadMAw70kjnLfkkW8dVkPLMIDnOS4E3hoRE+Mi7j2jlLwRUvyl1/ekrIcPHRqtqcpiLudicNWekB9FHA7lZ+eh0Ri4qHQnkdHp3mdFwxkkShPAfO0EGXBRYgTUqKlErdE1Wb0CGJXZGHSdNqGDKCsJ1TJnP6vqMuJUZpxuDuAUxgVFpsREEgUYMFu+rxszPNBZ5WDPRwluc5pzmitr4SQ+y+l5TBQhKMMCjfMcZLfIWj48ALPjYkzSv8ZE3eHvWs9sIu2S3oNHTCEVRwtgwGnwt6KsUpyC4BLvvcgEK46DYs5u+K03mpAfRZxdFKHbnGBVi0yvQisOP5lEYfRDEPwf22IqXU7pckqXI7qcECvsd+8VLsZPznhGTjB6jZVIzZz8ZA+dc9yig6ZEJvFifFQxXo8YAd9H0PIkfi6GHAXNPKxILbzB7vVR6AbplI5NtLGOuVT/5i2e1Rn4EFu+VFtBkewhB6uqmiyUa3yqI/WAkWUTj/6JxSqYYK6D6Pv/u9RXv2COAAA=

[PSD]
ActualTwoTheta=9999
FirstUsedChannel=0
FixedPSD=0
PSDOpening=4.99171
PSDType=5

[Drive]
DriveFlags=1
DriveName=2Theta
DriveNumber=2
DriveOffset=0
OffsetIndex=0
OscillationAmplitude=0
OscillationSpeed=0
StartPosition=40.0015

[Drive]
DriveFlags=1
DriveName=Theta
DriveNumber=1
DriveOffset=0
OffsetIndex=0
OscillationAmplitude=0
OscillationSpeed=0
StartPosition=20.0007

[Drive]
DriveFlags=1
DriveName=Phi
DriveNumber=3
DriveOffset=0
OffsetIndex=0
OscillationAmplitude=0
OscillationSpeed=0
StartPosition=0

[Data]
     Angle,       PSD,
   40.0015,       630,
   40.0217,       602,
   40.0418,       652,
    40.062,       629,
   40.0822,       670,
   40.1023,       643,
   40.1225,       654,
   40.1427,       616,
   40.1628,       608,
    40.183,       639,
   40.2032,       647,
   40.2233,       648,
   40.2435,       640,
   40.2637,       679,
   40.2838,       605,
    40.304,       623,
   40.3242,       675,
   40.3444,       660,
   40.3645,       565,
   40.3847,       656,
   40.4049,       689,
    40.425,       649,
   40.4452,       615,
   40.4654,       569,
   40.4855,       689,
   40.5057,       671,
   40.5259,       662,
    40.546,       594,
   40.5662,       661,
   40.5864,       693,
   40.6065,       646,
   40.6267,       620,
   40.6469,       666,
   40.6671,       627,
   40.6872,       632,
   40.7074,       621,
   40.7276,       649,
   40.7477,       665,
   40.7679,       635,
   40.7881,       661,
   40.8082,       641,
   40.8284,       616,
   40.8486,       657,
   40.8687,       636,
   40.8889,       593,
   40.9091,       662,
   40.9292,       619,
   40.9494,       681,
   40.9696,       630,
   40.9897,       663,
   41.0099,       618,
   41.0301,       600,
   41.0503,       676,
   41.0704,       650,
   41.0906,       611,
   41.1108,       626,
   41.1309,       629,
   41.1511,       620,
   41.1713,       652,
   41.1914,       670,
   41.2116,       636,
   41.2318,       573,
   41.2519,       638,
   41.2721,       635,
   41.2923,       635,
   41.3124,       613,
   41.3326,       596,
   41.3528,       620,
   41.3729,       674,
   41.3931,       645,
   41.4133,       619,
   41.4335,       645,
   41.4536,       628,
   41.4738,       633,
    41.494,       638,
   41.5141,       644,
   41.5343,       668,
   41.5545,       586,
   41.5746,       644,
   41.5948,       621,
    41.615,       679,
   41.6351,       653,
   41.6553,       673,
   41.6755,       633,
   41.6956,       617,
   41.7158,       672,
    41.736,       674,
   41.7562,       710,
   41.7763,       726,
   41.7965,       681,
   41.8167,       729,
   41.8368,       760,
    41.857,       739,
   41.8772,       750,
   41.8973,       783,
   41.9175,       778,
   41.9377,       775,
   41.9578,       820,
    41.978,       729,
   41.9982,       741,
   42.0183,       746,
   42.0385,       711,
   42.0587,       738,
   42.0788,       787,
    42.099,       775,
   42.1192,       727,
   42.1394,       714,
   42.1595,       733,
   42.1797,       744,
   42.1999,       744,
     42.22,       813,
   42.2402,       810,
   42.2604,       715,
   42.2805,       780,
   42.3007,       794,
   42.3209,       768,
    42.341,       776,
   42.3612,       737,
   42.3814,       820,
   42.4015,       824,
   42.4217,       807,
   42.4419,       704,
    42.462,       725,
   42.4822,       834,
   42.5024,       816,
   42.5226,       852,
   42.5427,       818,
   42.5629,       791,
   42.5831,       769,
   42.6032,       897,
   42.6234,       808,
   42.6436,       885,
   42.6637,       873,
   42.6839,       843,
   42.7041,       829,
   42.7242,       832,
   42.7444,       872,
   42.7646,       876,
   42.7847,       900,
   42.8049,       900,
   42.8251,       973,
   42.8453,      1019,
   42.8654,      1064,
   42.8856,      1087,
   42.9058,      1182,
   42.9259,      1183,
   42.9461,      1238,
   42.9663,      1373,
   42.9864,      1337,
   43.0066,      1327,
   43.0268,      1468,
   43.0469,      1672,
   43.0671,      1762,
   43.0873,      1946,
   43.1074,      2175,
   43.1276,      2311,
   43.1478,      2489,
   43.1679,      2663,
   43.1881,      3074,
   43.2083,      3890,
   43.2285,      5642,
   43.2486,      9565,
   43.2688,     21614,
    43.289,     46802,
   43.3091,     62844,
   43.3293,     43573,
   43.3495,     19938,
   43.3696,     13373,
   43.3898,     18650,
     43.41,     29906,
   43.4301,     30477,
   43.4503,     17221,
   43.4705,      7794,
   43.4906,      4479,
   43.5108,      3179,
    43.531,      2689,
   43.5511,      2329,
   43.5713,      2084,
   43.5915,      1909,
   43.6117,      1780,
   43.6318,      1606,
    43.652,      1468,
   43.6722,      1328,
   43.6923,      1346,
   43.7125,      1252,
   43.7327,      1130,
   43.7528,      1058,
    43.773,      1049,
   43.7932,      1018,
   43.8133,       879,
   43.8335,       947,
   43.8537,       898,
   43.8738,       931,
    43.894,       918,
   43.9142,       911,
   43.9344,       905,
   43.9545,       880,
   43.9747,       850,
   43.9949,       864,
    44.015,       869,
   44.0352,       828,
   44.0554,       797,
   44.0755,       841,
   44.0957,       806,
   44.1159,       805,
    44.136,       809,
   44.1562,       823,
   44.1764,       798,
   44.1965,       818,
   44.2167,       759,
   44.2369,       782,
    44.257,       738,
   44.2772,       828,
   44.2974,       811,
   44.3176,       805,
   44.3377,       762,
   44.3579,       750,
   44.3781,       730,
   44.3982,       785,
   44.4184,       763,
   44.4386,       727,
   44.4587,       763,
   44.4789,       730,
   44.4991,       775,
   44.5192,       775,
   44.5394,       736,
   44.5596,       740,
   44.5797,       759,
   44.5999,       737,
   44.6201,       672,
   44.6402,       739,
   44.6604,       735,
   44.6806,       749,
   44.7008,       729,
   44.7209,       729,
   44.7411,       733,
   44.7613,       690,
   44.7814,       730,
   44.8016,       783,
   44.8218,       748,
   44.8419,       694,
   44.8621,       723,
   44.8823,       706,
   44.9024,       734,
   44.9226,       740,
   44.9428,       760,
   44.9629,       679,
   44.9831,       696,
   45.0033,       727,
   45.0235,       704,
   45.0436,       738,
   45.0638,       710,
    45.084,       708,
   45.1041,       705,
   45.1243,       730,
   45.1445,       744,
   45.1646,       705,
   45.1848,       702,
    45.205,       758,
   45.2251,       724,
   45.2453,       798,
   45.2655,       724,
   45.2856,       786,
   45.3058,       744,
    45.326,       695,
   45.3461,       775,
   45.3663,       717,
   45.3865,       698,
   45.4067,       724,
   45.4268,       681,
    45.447,       730,
   45.4672,       695,
   45.4873,       698,
   45.5075,       692,
   45.5277,       715,
   45.5478,       683,
    45.568,       676,
   45.5882,       660,
   45.6083,       724,
   45.6285,       654,
   45.6487,       686,
   45.6688,       708,
    45.689,       694,
   45.7092,       721,
   45.7294,       716,
   45.7495,       726,
   45.7697,       696,
   45.7899,       657,
     45.81,       726,
   45.8302,       709,
   45.8504,       640,
   45.8705,       722,
   45.8907,       689,
   45.9109,       720,
    45.931,       728,
   45.9512,       688,
   45.9714,       739,
   45.9915,       752,
   46.0117,       658,
   46.0319,       699,
    46.052,       683,
   46.0722,       649,
   46.0924,       680,
   46.1126,       687,
   46.1327,       759,
   46.1529,       738,
   46.1731,       699,
   46.1932,       671,
   46.2134,       717,
   46.2336,       685,
   46.2537,       650,
   46.2739,       688,
   46.2941,       712,
   46.3142,       650,
   46.3344,       661,
   46.3546,       722,
   46.3747,       697,
   46.3949,       659,
   46.4151,       676,
   46.4352,       641,
   46.4554,       669,
   46.4756,       704,
   46.4958,       717,
   46.5159,       695,
   46.5361,       697,
   46.5563,       717,
   46.5764,       701,
   46.5966,       685,
   46.6168,       686,
   46.6369,       688,
   46.6571,       665,
   46.6773,       661,
   46.6974,       696,
   46.7176,       660,
   46.7378,       682,
   46.7579,       701,
   46.7781,       713,
   46.7983,       692,
   46.8185,       664,
   46.8386,       630,
   46.8588,       681,
    46.879,       628,
   46.8991,       658,
   46.9193,       667,
   46.9395,       684,
   46.9596,       618,
   46.9798,       691,
        47,       631,
   47.0201,       696,
   47.0403,       650,
   47.0605,       706,
   47.0806,       717,
   47.1008,       642,
    47.121,       690,
   47.1411,       691,
   47.1613,       681,
   47.1815,       636,
   47.2017,       682,
   47.2218,       652,
    47.242,       648,
   47.2622,       683,
   47.2823,       715,
   47.3025,       674,
   47.3227,       671,
   47.3428,       678,
    47.363,       720,
   47.3832,       691,
   47.4033,       722,
   47.4235,       636,
   47.4437,       669,
   47.4638,       629,
    47.484,       651,
   47.5042,       693,
   47.5243,       657,
   47.5445,       733,
   47.5647,       665,
   47.5849,       686,
    47.605,       705,
   47.6252,       654,
   47.6454,       659,
   47.6655,       727,
   47.6857,       662,
   47.7059,       684,
    47.726,       613,
   47.7462,       707,
   47.7664,       694,
   47.7865,       638,
   47.8067,       653,
   47.8269,       666,
    47.847,       668,
   47.8672,       655,
   47.8874,       645,
   47.9076,       701,
   47.9277,       668,
   47.9479,       667,
   47.9681,       673,
   47.9882,       677,
   48.0084,       697,
   48.0286,       701,
   48.0487,       653,
   48.0689,       681,
   48.0891,       680,
   48.1092,       656,
   48.1294,       686,
   48.1496,       674,
   48.1697,       656,
   48.1899,       658,
   48.2101,       720,
   48.2302,       682,
   48.2504,       695,
   48.2706,       708,
   48.2908,       651,
   48.3109,       611,
   48.3311,       657,
   48.3513,       693,
   48.3714,       637,
   48.3916,       688,
   48.4118,       667,
   48.4319,       693,
   48.4521,       650,
   48.4723,       640,
   48.4924,       695,
   48.5126,       676,
   48.5328,       661,
   48.5529,       724,
   48.5731,       672,
   48.5933,       688,
   48.6134,       692,
   48.6336,       655,
   48.6538,       689,
    48.674,       675,
   48.6941,       698,
   48.7143,       676,
   48.7345,       699,
   48.7546,       721,
   48.7748,       695,
    48.795,       686,
   48.8151,       736,
   48.8353,       719,
   48.8555,       666,
   48.8756,       728,
   48.8958,       634,
    48.916,       654,
   48.9361,       730,
   48.9563,       726,
   48.9765,       714,
   48.9967,       676,
   49.0168,       683,
    49.037,       707,
   49.0572,       690,
   49.0773,       704,
   49.0975,       696,
   49.1177,       671,
   49.1378,       698,
    49.158,       725,
   49.1782,       720,
   49.1983,       677,
   49.2185,       716,
   49.2387,       701,
   49.2588,       700,
    49.279,       700,
   49.2992,       707,
   49.3193,       720,
   49.3395,       684,
   49.3597,       765,
   49.3799,       667,
      49.4,       664,
   49.4202,       706,
   49.4404,       729,
   49.4605,       676,
   49.4807,       715,
   49.5009,       694,
    49.521,       707,
   49.5412,       715,
   49.5614,       700,
   49.5815,       719,
   49.6017,       714,
   49.6219,       703,
    49.642,       707,
   49.6622,       692,
   49.6824,       721,
   49.7025,       687,
   49.7227,       713,
   49.7429,       705,
   49.7631,       727,
   49.7832,       751,
   49.8034,       762,
   49.8236,       781,
   49.8437,       776,
   49.8639,       747,
   49.8841,       745,
   49.9042,       779,
   49.9244,       769,
   49.9446,       786,
   49.9647,       807,
   49.9849,       795,
   50.0051,       837,
   50.0252,       856,
   50.0454,       810,
   50.0656,       894,
   50.0858,       872,
   50.1059,       879,
   50.1261,       969,
   50.1463,       973,
   50.1664,      1009,
   50.1866,      1112,
   50.2068,      1151,
   50.2269,      1138,
   50.2471,      1219,
   50.2673,      1311,
   50.2874,      1405,
   50.3076,      1578,
   50.3278,      1869,
   50.3479,      2327,
   50.3681,      3255,
   50.3883,      5259,
   50.4084,      8673,
   50.4286,     12299,
   50.4488,     12411,
    50.469,      9332,
   50.4891,      6053,
   50.5093,      4721,
   50.5295,      4692,
   50.5496,      6234,
   50.5698,      7163,
     50.59,      6499,
   50.6101,      4541,
   50.6303,      2990,
   50.6505,      2143,
   50.6706,      1580,
   50.6908,      1472,
    50.711,      1253,
   50.7311,      1179,
   50.7513,      1072,
   50.7715,      1034,
   50.7917,       973,
   50.8118,       965,
    50.832,       880,
   50.8522,       817,
   50.8723,       821,
   50.8925,       806,
   50.9127,       809,
   50.9328,       763,
    50.953,       769,
   50.9732,       763,
   50.9933,       707,
   51.0135,       722,
   51.0337,       694,
   51.0538,       697,
    51.074,       698,
   51.0942,       713,
   51.1143,       740,
   51.1345,       724,
   51.1547,       709,
   51.1749,       651,
    51.195,       707,
   51.2152,       687,
   51.2354,       717,
   51.2555,       747,
   51.2757,       707,
   51.2959,       750,
    51.316,       716,
   51.3362,       707,
   51.3564,       689,
   51.3765,       667,
   51.3967,       662,
   51.4169,       656,
    51.437,       688,
   51.4572,       674,
   51.4774,       690,
   51.4975,       615,
   51.5177,       689,
   51.5379,       684,
   51.5581,       696,
   51.5782,       671,
   51.5984,       659,
   51.6186,       672,
   51.6387,       722,
   51.6589,       701,
   51.6791,       688,
   51.6992,       625,
   51.7194,       683,
   51.7396,       656,
   51.7597,       676,
   51.7799,       659,
   51.8001,       653,
   51.8202,       680,
   51.8404,       689,
   51.8606,       652,
   51.8808,       667,
   51.9009,       695,
   51.9211,       668,
   51.9413,       667,
   51.9614,       670,
   51.9816,       674,
   52.0018,       683,
   52.0219,       682,
   52.0421,       665,
   52.0623,       685,
   52.0824,       635,
   52.1026,       664,
   52.1228,       681,
   52.1429,       674,
   52.1631,       675,
   52.1833,       675,
   52.2034,       636,
   52.2236,       658,
   52.2438,       632,
    52.264,       677,
   52.2841,       661,
   52.3043,       630,
   52.3245,       649,
   52.3446,       686,
   52.3648,       680,
    52.385,       648,
   52.4051,       617,
   52.4253,       704,
   52.4455,       648,
   52.4656,       643,
   52.4858,       631,
    52.506,       638,
   52.5261,       663,
   52.5463,       612,
   52.5665,       649,
   52.5866,       677,
   52.6068,       648,
    52.627,       633,
   52.6472,       615,
   52.6673,       651,
   52.6875,       653,
   52.7077,       661,
   52.7278,       675,
    52.748,       705,
   52.7682,       604,
   52.7883,       695,
   52.8085,       642,
   52.8287,       635,
   52.8488,       700,
    52.869,       671,
   52.8892,       667,
   52.9093,       637,
   52.9295,       634,
   52.9497,       605,
   52.9699,       645,
     52.99,       658,
   53.0102,       657,
   53.0304,       625,
   53.0505,       637,
   53.0707,       676,
   53.0909,       623,
    53.111,       642,
   53.1312,       649,
   53.1514,       653,
   53.1715,       662,
   53.1917,       653,
   53.2119,       640,
    53.232,       584,
   53.2522,       627,
   53.2724,       651,
   53.2925,       669,
   53.3127,       643,
   53.3329,       661,
   53.3531,       678,
   53.3732,       609,
   53.3934,       641,
   53.4136,       667,
   53.4337,       597,
   53.4539,       610,
   53.4741,       604,
   53.4942,       632,
   53.5144,       582,
   53.5346,       670,
   53.5547,       680,
   53.5749,       640,
   53.5951,       668,
   53.6152,       625,
   53.6354,       663,
   53.6556,       643,
   53.6757,       588,
   53.6959,       641,
   53.7161,       617,
   53.7363,       622,
   53.7564,       648,
   53.7766,       571,
   53.7968,       631,
   53.8169,       635,
   53.8371,       631,
   53.8573,       660,
   53.8774,       641,
   53.8976,       629,
   53.9178,       660,
   53.9379,       588,
   53.9581,       627,
   53.9783,       617,
   53.9984,       654,
   54.0186,       625,
   54.0388,       615,
    54.059,       656,
   54.0791,       629,
   54.0993,       602,
   54.1195,       654,
   54.1396,       630,
   54.1598,       648,
     54.18,       618,
   54.2001,       648,
   54.2203,       677,
   54.2405,       619,
   54.2606,       593,
   54.2808,       641,
    54.301,       619,
   54.3211,       683,
   54.3413,       619,
   54.3615,       642,
   54.3816,       667,
   54.4018,       655,
    54.422,       590,
   54.4422,       611,
   54.4623,       630,
   54.4825,       627,
   54.5027,       610,
   54.5228,       605,
    54.543,       632,
   54.5632,       620,
   54.5833,       647,
   54.6035,       648,
   54.6237,       648,
   54.6438,       653,
    54.664,       656,
   54.6842,       622,
   54.7043,       600,
   54.7245,       652,
   54.7447,       621,
   54.7648,       642,
    54.785,       621,
   54.8052,       664,
   54.8254,       625,
   54.8455,       626,
   54.8657,       629,
   54.8859,       630,
    54.906,       676,
   54.9262,       660,
   54.9464,       590,
   54.9665,       660,
   54.9867,       582,
   55.0069,       622,
    55.027,       633,
   55.0472,       679,
   55.0674,       602,
   55.0875,       620,
   55.1077,       599,
   55.1279,       655,
   55.1481,       614,
   55.1682,       631,
   55.1884,       594,
   55.2086,       616,
   55.2287,       612,
   55.2489,       639,
   55.2691,       604,
   55.2892,       663,
   55.3094,       610,
   55.3296,       662,
   55.3497,       630,
   55.3699,       618,
   55.3901,       618,
   55.4102,       659,
   55.4304,       628,
   55.4506,       621,
   55.4707,       644,
   55.4909,       626,
   55.5111,       611,
   55.5313,       610,
   55.5514,       614,
   55.5716,       573,
   55.5918,       661,
   55.6119,       660,
   55.6321,       640,
   55.6523,       684,
   55.6724,       633,
   55.6926,       652,
   55.7128,       610,
   55.7329,       650,
   55.7531,       617,
   55.7733,       657,
   55.7934,       624,
   55.8136,       626,
   55.8338,       653,
    55.854,       578,
   55.8741,       690,
   55.8943,       661,
   55.9145,       623,
   55.9346,       630,
   55.9548,       605,
    55.975,       621,
   55.9951,       621,
   56.0153,       634,
   56.0355,       613,
   56.0556,       676,
   56.0758,       618,
    56.096,       644,
   56.1161,       613,
   56.1363,       664,
   56.1565,       623,
   56.1766,       594,
   56.1968,       624,
    56.217,       645,
   56.2372,       601,
   56.2573,       645,
   56.2775,       653,
   56.2977,       682,
   56.3178,       683,
    56.338,       630,
   56.3582,       628,
   56.3783,       630,
   56.3985,       600,
   56.4187,       627,
   56.4388,       613,
    56.459,       621,
   56.4792,       613,
   56.4993,       666,
   56.5195,       610,
   56.5397,       621,
   56.5598,       610,
     56.58,       624,
   56.6002,       603,
   56.6204,       639,
   56.6405,       602,
   56.6607,       622,
   56.6809,       611,
    56.701,       620,
   56.7212,       647,
   56.7414,       601,
   56.7615,       614,
   56.7817,       650,
   56.8019,       639,
    56.822,       595,
   56.8422,       610,
   56.8624,       616,
   56.8825,       630,
   56.9027,       611,
   56.9229,       619,
   56.9431,       642,
   56.9632,       564,
   56.9834,       615,
   57.0036,       554,
   57.0237,       631,
   57.0439,       621,
   57.0641,       624,
   57.0842,       608,
   57.1044,       596,
   57.1246,       629,
   57.1447,       589,
   57.1649,       597,
   57.1851,       631,
   57.2052,       630,
   57.2254,       612,
   57.2456,       602,
   57.2657,       618,
   57.2859,       621,
   57.3061,       636,
   57.3263,       602,
   57.3464,       654,
   57.3666,       567,
   57.3868,       658,
   57.4069,       615,
   57.4271,       647,
   57.4473,       650,
   57.4674,       625,
   57.4876,       610,
   57.5078,       603,
   57.5279,       648,
   57.5481,       618,
   57.5683,       637,
   57.5884,       618,
   57.6086,       624,
   57.6288,       612,
   57.6489,       615,
   57.6691,       628,
   57.6893,       605,
   57.7095,       584,
   57.7296,       599,
   57.7498,       593,
     57.77,       646,
   57.7901,       633,
   57.8103,       627,
   57.8305,       589,
   57.8506,       635,
   57.8708,       624,
    57.891,       613,
   57.9111,       618,
   57.9313,       633,
   57.9515,       657,
   57.9716,       620,
   57.9918,       597,
    58.012,       635,
   58.0322,       617,
   58.0523,       627,
   58.0725,       575,
   58.0927,       610,
   58.1128,       649,
    58.133,       629,
   58.1532,       631,
   58.1733,       635,
   58.1935,       573,
   58.2137,       634,
   58.2338,       597,
    58.254,       616,
   58.2742,       651,
   58.2943,       615,
   58.3145,       637,
   58.3347,       651,
   58.3548,       627,
    58.375,       611,
   58.3952,       624,
   58.4154,       650,
   58.4355,       579,
   58.4557,       587,
   58.4759,       577,
    58.496,       651,
   58.5162,       584,
   58.5364,       633,
   58.5565,       590,
   58.5767,       618,
   58.5969,       622,
    58.617,       577,
   58.6372,       590,
   58.6574,       616,
   58.6775,       608,
   58.6977,       612,
   58.7179,       579,
    58.738,       613,
   58.7582,       621,
   58.7784,       605,
   58.7986,       593,
   58.8187,       566,
   58.8389,       616,
   58.8591,       610,
   58.8792,       633,
   58.8994,       598,
   58.9196,       613,
   58.9397,       563,
   58.9599,       588,
   58.9801,       623,
   59.0002,       617,
   59.0204,       632,
   59.0406,       586,
   59.0607,       605,
   59.0809,       607,
   59.1011,       586,
   59.1213,       580,
   59.1414,       615,
   59.1616,       628,
   59.1818,       617,
   59.2019,       649,
   59.2221,       575,
   59.2423,       614,
   59.2624,       595,
   59.2826,       600,
   59.3028,       622,
   59.3229,       603,
   59.3431,       630,
   59.3633,       606,
   59.3834,       605,
   59.4036,       590,
   59.4238,       597,
   59.4439,       609,
   59.4641,       625,
   59.4843,       616,
   59.5045,       591,
   59.5246,       602,
   59.5448,       605,
    59.565,       639,
   59.5851,       585,
   59.6053,       602,
   59.6255,       620,
   59.6456,       601,
   59.6658,       633,
    59.686,       595,
   59.7061,       597,
   59.7263,       631,
   59.7465,       621,
   59.7666,       579,
   59.7868,       612,
    59.807,       568,
   59.8271,       647,
   59.8473,       620,
   59.8675,       588,
   59.8877,       599,
   59.9078,       624,
    59.928,       658,
   59.9482,       646,
   59.9683,       612,
   59.9885,       588,
   60.0087,       578,
   60.0288,       658,
    60.049,       669,
   60.0692,       606,
   60.0893,       604,
   60.1095,       623,
   60.1297,       588,
   60.1498,       621,
     60.17,       584,
   60.1902,       605,
   60.2104,       627,
   60.2305,       595,
   60.2507,       641,
   60.2709,       602,
    60.291,       632,
   60.3112,       648,
   60.3314,       631,
   60.3515,       630,
   60.3717,       600,
   60.3919,       596,
    60.412,       661,
   60.4322,       626,
   60.4524,       592,
   60.4725,       635,
   60.4927,       622,
   60.5129,       559,
    60.533,       636,
   60.5532,       614,
   60.5734,       583,
   60.5936,       658,
   60.6137,       611,
   60.6339,       632,
   60.6541,       633,
   60.6742,       599,
   60.6944,       588,
   60.7146,       608,
   60.7347,       647,
   60.7549,       601,
   60.7751,       625,
   60.7952,       590,
   60.8154,       597,
   60.8356,       614,
   60.8557,       651,
   60.8759,       559,
   60.8961,       635,
   60.9163,       596,
   60.9364,       646,
   60.9566,       598,
   60.9768,       630,
   60.9969,       646,
   61.0171,       591,
   61.0373,       618,
   61.0574,       607,
   61.0776,       593,
   61.0978,       619,
   61.1179,       622,
   61.1381,       652,
   61.1583,       583,
   61.1784,       571,
   61.1986,       660,
   61.2188,       617,
   61.2389,       626,
   61.2591,       589,
   61.2793,       623,
   61.2995,       607,
   61.3196,       584,
   61.3398,       600,
     61.36,       625,
   61.3801,       591,
   61.4003,       625,
   61.4205,       608,
   61.4406,       615,
   61.4608,       629,
    61.481,       616,
   61.5011,       604,
   61.5213,       613,
   61.5415,       622,
   61.5616,       589,
   61.5818,       585,
    61.602,       650,
   61.6221,       651,
   61.6423,       626,
   61.6625,       639,
   61.6827,       633,
   61.7028,       618,
    61.723,       597,
   61.7432,       611,
   61.7633,       638,
   61.7835,       664,
   61.8037,       593,
   61.8238,       595,
    61.844,       651,
   61.8642,       626,
   61.8843,       636,
   61.9045,       598,
   61.9247,       587,
   61.9448,       617,
    61.965,       615,
   61.9852,       614,
   62.0054,       595,
   62.0255,       584,
   62.0457,       607,
   62.0659,       592,
    62.086,       608,
   62.1062,       640,
   62.1264,       611,
   62.1465,       584,
   62.1667,       613,
   62.1869,       618,
    62.207,       571,
   62.2272,       605,
   62.2474,       623,
   62.2675,       586,
   62.2877,       664,
   62.3079,       616,
    62.328,       563,
   62.3482,       656,
   62.3684,       588,
   62.3886,       618,
   62.4087,       562,
   62.4289,       628,
   62.4491,       615,
   62.4692,       579,
   62.4894,       632,
   62.5096,       582,
   62.5297,       568,
   62.5499,       591,
   62.5701,       619,
   62.5902,       566,
   62.6104,       562,
   62.6306,       595,
   62.6507,       597,
   62.6709,       596,
   62.6911,       592,
   62.7112,       621,
   62.7314,       605,
   62.7516,       551,
   62.7718,       606,
   62.7919,       627,
   62.8121,       559,
   62.8323,       628,
   62.8524,       624,
   62.8726,       582,
   62.8928,       621,
   62.9129,       554,
   62.9331,       586,
   62.9533,       549,
   62.9734,       607,
   62.9936,       596,
   63.0138,       581,
   63.0339,       571,
   63.0541,       649,
   63.0743,       639,
   63.0945,       592,
   63.1146,       610,
   63.1348,       602,
    63.155,       560,
   63.1751,       576,
   63.1953,       610,
   63.2155,       616,
   63.2356,       615,
   63.2558,       560,
    63.276,       608,
   63.2961,       620,
   63.3163,       640,
   63.3365,       613,
   63.3566,       620,
   63.3768,       638,
    63.397,       601,
   63.4171,       629,
   63.4373,       573,
   63.4575,       586,
   63.4777,       607,
   63.4978,       592,
    63.518,       545,
   63.5382,       624,
   63.5583,       566,
   63.5785,       630,
   63.5987,       597,
   63.6188,       610,
    63.639,       581,
   63.6592,       592,
   63.6793,       616,
   63.6995,       583,
   63.7197,       584,
   63.7398,       592,
     63.76,       583,
   63.7802,       627,
   63.8003,       612,
   63.8205,       573,
   63.8407,       621,
   63.8609,       603,
    63.881,       647,
   63.9012,       592,
   63.9214,       632,
   63.9415,       585,
   63.9617,       606,
   63.9819,       583,
    64.002,       620,
   64.0222,       592,
   64.0424,       596,
   64.0625,       569,
   64.0827,       601,
   64.1029,       617,
    64.123,       621,
   64.1432,       549,
   64.1634,       596,
   64.1836,       577,
   64.2037,       605,
   64.2239,       624,
   64.2441,       583,
   64.2642,       600,
   64.2844,       585,
   64.3046,       597,
   64.3247,       605,
   64.3449,       603,
   64.3651,       600,
   64.3852,       586,
   64.4054,       586,
   64.4256,       591,
   64.4457,       660,
   64.4659,       615,
   64.4861,       563,
   64.5062,       613,
   64.5264,       610,
   64.5466,       619,
   64.5668,       590,
   64.5869,       605,
   64.6071,       616,
   64.6273,       589,
   64.6474,       584,
   64.6676,       617,
   64.6878,       613,
   64.7079,       573,
   64.7281,       586,
   64.7483,       627,
   64.7684,       573,
   64.7886,       622,
   64.8088,       620,
   64.8289,       608,
   64.8491,       558,
   64.8693,       614,
   64.8894,       588,
   64.9096,       594,
   64.9298,       614,
     64.95,       621,
   64.9701,       619,
   64.9903,       620,
   65.0105,       601,
   65.0306,       592,
   65.0508,       604,
    65.071,       617,
   65.0911,       595,
   65.1113,       585,
   65.1315,       635,
   65.1516,       578,
   65.1718,       623,
    65.192,       635,
   65.2121,       642,
   65.2323,       612,
   65.2525,       534,
   65.2727,       572,
   65.2928,       598,
    65.313,       604,
   65.3332,       593,
   65.3533,       621,
   65.3735,       618,
   65.3937,       610,
   65.4138,       585,
    65.434,       595,
   65.4542,       654,
   65.4743,       541,
   65.4945,       650,
   65.5147,       631,
   65.5348,       639,
    65.555,       598,
   65.5752,       605,
   65.5953,       621,
   65.6155,       598,
   65.6357,       593,
   65.6559,       648,
    65.676,       633,
   65.6962,       583,
   65.7164,       583,
   65.7365,       554,
   65.7567,       622,
   65.7769,       582,
    65.797,       625,
   65.8172,       605,
   65.8374,       623,
   65.8575,       603,
   65.8777,       629,
   65.8979,       589,
    65.918,       576,
   65.9382,       617,
   65.9584,       610,
   65.9786,       648,
   65.9987,       619,
   66.0189,       668,
   66.0391,       574,
   66.0592,       607,
   66.0794,       592,
   66.0996,       595,
   66.1197,       579,
   66.1399,       588,
   66.1601,       638,
   66.1802,       619,
   66.2004,       587,
   66.2206,       613,
   66.2407,       589,
   66.2609,       611,
   66.2811,       599,
   66.3012,       599,
   66.3214,       631,
   66.3416,       621,
   66.3618,       643,
   66.3819,       640,
   66.4021,       551,
   66.4223,       600,
   66.4424,       579,
   66.4626,       610,
   66.4828,       615,
   66.5029,       575,
   66.5231,       598,
   66.5433,       621,
   66.5634,       636,
   66.5836,       626,
   66.6038,       619,
   66.6239,       637,
   66.6441,       604,
   66.6643,       564,
   66.6844,       657,
   66.7046,       616,
   66.7248,       613,
    66.745,       623,
   66.7651,       592,
   66.7853,       613,
   66.8055,       655,
   66.8256,       588,
   66.8458,       591,
    66.866,       580,
   66.8861,       557,
   66.9063,       630,
   66.9265,       616,
   66.9466,       582,
   66.9668,       654,
    66.987,       544,
   67.0071,       572,
   67.0273,       619,
   67.0475,       610,
   67.0677,       616,
   67.0878,       599,
    67.108,       606,
   67.1282,       601,
   67.1483,       609,
   67.1685,       651,
   67.1887,       610,
   67.2088,       623,
    67.229,       584,
   67.2492,       595,
   67.2693,       604,
   67.2895,       606,
   67.3097,       619,
   67.3298,       603,
     67.35,       665,
   67.3702,       593,
   67.3903,       611,
   67.4105,       613,
   67.4307,       617,
   67.4509,       609,
    67.471,       593,
   67.4912,       643,
   67.5114,       612,
   67.5315,       556,
   67.5517,       645,
   67.5719,       591,
    67.592,       583,
   67.6122,       605,
   67.6324,       564,
   67.6525,       640,
   67.6727,       630,
   67.6929,       589,
    67.713,       610,
   67.7332,       636,
   67.7534,       621,
   67.7735,       602,
   67.7937,       585,
   67.8139,       610,
   67.8341,       568,
   67.8542,       622,
   67.8744,       583,
   67.8946,       561,
   67.9147,       585,
   67.9349,       660,
   67.9551,       575,
   67.9752,       584,
   67.9954,       576,
   68.0156,       555,
   68.0357,       583,
   68.0559,       600,
   68.0761,       603,
   68.0962,       585,
   68.1164,       582,
   68.1366,       566,
   68.1568,       623,
   68.1769,       568,
   68.1971,       636,
   68.2173,       571,
   68.2374,       567,
   68.2576,       594,
   68.2778,       607,
   68.2979,       586,
   68.3181,       616,
   68.3383,       583,
   68.3584,       612,
   68.3786,       629,
   68.3988,       654,
   68.4189,       607,
   68.4391,       563,
   68.4593,       619,
   68.4794,       615,
   68.4996,       624,
   68.5198,       578,
     68.54,       595,
   68.5601,       634,
   68.5803,       621,
   68.6005,       611,
   68.6206,       573,
   68.6408,       604,
    68.661,       627,
   68.6811,       604,
   68.7013,       621,
   68.7215,       585,
   68.7416,       612,
   68.7618,       617,
    68.782,       603,
   68.8021,       602,
   68.8223,       604,
   68.8425,       565,
   68.8626,       581,
   68.8828,       581,
    68.903,       605,
   68.9232,       600,
   68.9433,       616,
   68.9635,       607,
   68.9837,       623,
   69.0038,       624,
    69.024,       582,
   69.0442,       599,
   69.0643,       608,
   69.0845,       594,
   69.1047,       586,
   69.1248,       606,
    69.145,       593,
   69.1652,       620,
   69.1853,       616,
   69.2055,       578,
   69.2257,       620,
   69.2459,       563,
    69.266,       581,
   69.2862,       613,
   69.3064,       606,
   69.3265,       581,
   69.3467,       578,
   69.3669,       602,
    69.387,       617,
   69.4072,       608,
   69.4274,       621,
   69.4475,       573,
   69.4677,       591,
   69.4879,       642,
    69.508,       617,
   69.5282,       631,
   69.5484,       630,
   69.5685,       615,
   69.5887,       639,
   69.6089,       627,
   69.6291,       607,
   69.6492,       665,
   69.6694,       598,
   69.6896,       563,
   69.7097,       625,
   69.7299,       619,
   69.7501,       596,
   69.7702,       624,
   69.7904,       608,
   69.8106,       620,
   69.8307,       603,
   69.8509,       664,
   69.8711,       601,
   69.8912,       595,
   69.9114,       613,
   69.9316,       660,
   69.9517,       601,
   69.9719,       635,
   69.9921,       580,
   70.0123,       575,
   70.0324,       578,
   70.0526,       652,
   70.0728,       574,
   70.0929,       607,
   70.1131,       603,
   70.1333,       568,
   70.1534,       617,
   70.1736,       578,
   70.1938,       639,
   70.2139,       657,
   70.2341,       637,
   70.2543,       612,
   70.2744,       601,
   70.2946,       608,
   70.3148,       615,
    70.335,       616,
   70.3551,       627,
   70.3753,       555,
   70.3955,       640,
   70.4156,       623,
   70.4358,       611,
    70.456,       595,
   70.4761,       596,
   70.4963,       624,
   70.5165,       583,
   70.5366,       580,
   70.5568,       573,
    70.577,       567,
   70.5971,       594,
   70.6173,       606,
   70.6375,       589,
   70.6576,       615,
   70.6778,       610,
    70.698,       600,
   70.7182,       609,
   70.7383,       613,
   70.7585,       598,
   70.7787,       611,
   70.7988,       587,
    70.819,       601,
   70.8392,       592,
   70.8593,       614,
   70.8795,       582,
   70.8997,       623,
   70.9198,       581,
     70.94,       593,
   70.9602,       596,
   70.9803,       604,
   71.0005,       636,
   71.0207,       613,
   71.0409,       578,
    71.061,       617,
   71.0812,       607,
   71.1014,       626,
   71.1215,       621,
   71.1417,       608,
   71.1619,       632,
    71.182,       601,
   71.2022,       583,
   71.2224,       621,
   71.2425,       614,
   71.2627,       614,
   71.2829,       607,
    71.303,       634,
   71.3232,       603,
   71.3434,       639,
   71.3635,       624,
   71.3837,       635,
   71.4039,       628,
   71.4241,       621,
   71.4442,       641,
   71.4644,       604,
   71.4846,       607,
   71.5047,       639,
   71.5249,       610,
   71.5451,       657,
   71.5652,       617,
   71.5854,       604,
   71.6056,       582,
   71.6257,       618,
   71.6459,       615,
   71.6661,       596,
   71.6862,       645,
   71.7064,       673,
   71.7266,       666,
   71.7467,       586,
   71.7669,       636,
   71.7871,       634,
   71.8073,       597,
   71.8274,       662,
   71.8476,       617,
   71.8678,       622,
   71.8879,       641,
   71.9081,       584,
   71.9283,       626,
   71.9484,       659,
   71.9686,       622,
   71.9888,       594,
   72.0089,       666,
   72.0291,       622,
   72.0493,       633,
   72.0694,       651,
   72.0896,       590,
   72.1098,       633,
     72.13,       614,
   72.1501,       599,
   72.1703,       643,
   72.1905,       657,
   72.2106,       596,
   72.2308,       627,
    72.251,       570,
   72.2711,       618,
   72.2913,       571,
   72.3115,       707,
   72.3316,       610,
   72.3518,       627,
    72.372,       644,
   72.3921,       593,
   72.4123,       685,
   72.4325,       638,
   72.4526,       600,
   72.4728,       652,
    72.493,       649,
   72.5132,       585,
   72.5333,       625,
   72.5535,       617,
   72.5737,       653,
   72.5938,       629,
    72.614,       620,
   72.6342,       654,
   72.6543,       634,
   72.6745,       595,
   72.6947,       661,
   72.7148,       542,
    72.735,       654,
   72.7552,       595,
   72.7753,       601,
   72.7955,       591,
   72.8157,       641,
   72.8358,       608,
    72.856,       654,
   72.8762,       649,
   72.8964,       648,
   72.9165,       632,
   72.9367,       637,
   72.9569,       635,
    72.977,       624,
   72.9972,       622,
   73.0174,       613,
   73.0375,       646,
   73.0577,       652,
   73.0779,       634,
    73.098,       647,
   73.1182,       682,
   73.1384,       633,
   73.1585,       634,
   73.1787,       651,
   73.1989,       634,
   73.2191,       621,
   73.2392,       635,
   73.2594,       648,
   73.2796,       630,
   73.2997,       636,
   73.3199,       691,
   73.3401,       599,
   73.3602,       646,
   73.3804,       661,
   73.4006,       643,
   73.4207,       696,
   73.4409,       608,
   73.4611,       696,
   73.4812,       646,
   73.5014,       645,
   73.5216,       704,
   73.5417,       690,
   73.5619,       683,
   73.5821,       669,
   73.6023,       705,
   73.6224,       750,
   73.6426,       718,
   73.6628,       759,
   73.6829,       759,
   73.7031,       777,
   73.7233,       841,
   73.7434,       832,
   73.7636,       870,
   73.7838,       821,
   73.8039,       903,
   73.8241,       854,
   73.8443,       928,
   73.8644,       911,
   73.8846,       972,
   73.9048,       981,
   73.9249,      1014,
   73.9451,      1139,
   73.9653,      1217,
   73.9855,      1393,
   74.0056,      1706,
   74.0258,      2094,
    74.046,      3001,
   74.0661,      4781,
   74.0863,      7946,
   74.1065,     11243,
   74.1266,     12189,
   74.1468,      9389,
    74.167,      5786,
   74.1871,      3599,
   74.2073,      2589,
   74.2275,      2208,
   74.2476,      2181,
   74.2678,      2552,
    74.288,      3455,
   74.3082,      5067,
   74.3283,      6462,
   74.3485,      6153,
   74.3687,      4490,
   74.3888,      2974,
    74.409,      2038,
   74.4292,      1538,
   74.4493,      1312,
   74.4695,      1130,
   74.4897,       972,
   74.5098,       945,
     74.53,       867,
   74.5502,       844,
   74.5703,       793,
   74.5905,       796,
   74.6107,       764,
   74.6308,       759,
    74.651,       768,
   74.6712,       772,
   74.6914,       749,
   74.7115,       684,
   74.7317,       685,
   74.7519,       653,
    74.772,       670,
   74.7922,       681,
   74.8124,       673,
   74.8325,       642,
   74.8527,       684,
   74.8729,       665,
    74.893,       655,
   74.9132,       726,
   74.9334,       623,
   74.9535,       671,
   74.9737,       641,
   74.9939,       653,
    75.014,       677,
   75.0342,       654,
   75.0544,       655,
   75.0746,       647,
   75.0947,       650,
   75.1149,       642,
   75.1351,       685,
   75.1552,       655,
   75.1754,       630,
   75.1956,       660,
   75.2157,       681,
   75.2359,       688,
   75.2561,       653,
   75.2762,       642,
   75.2964,       647,
   75.3166,       628,
   75.3367,       643,
   75.3569,       608,
   75.3771,       646,
   75.3973,       599,
   75.4174,       680,
   75.4376,       646,
   75.4578,       652,
   75.4779,       607,
   75.4981,       646,
   75.5183,       642,
   75.5384,       599,
   75.5586,       640,
   75.5788,       617,
   75.5989,       646,
   75.6191,       595,
   75.6393,       604,
   75.6594,       639,
   75.6796,       654,
   75.6998,       586,
   75.7199,       609,
   75.7401,       640,
   75.7603,       605,
   75.7805,       612,
   75.8006,       586,
   75.8208,       623,
    75.841,       665,
   75.8611,       645,
   75.8813,       598,
   75.9015,       627,
   75.9216,       623,
   75.9418,       611,
    75.962,       660,
   75.9821,       591,
   76.0023,       631,
   76.0225,       628,
   76.0426,       640,
   76.0628,       592,
    76.083,       644,
   76.1032,       647,
   76.1233,       630,
   76.1435,       597,
   76.1637,       630,
   76.1838,       662,
    76.204,       630,
   76.2242,       602,
   76.2443,       572,
   76.2645,       591,
   76.2847,       667,
   76.3048,       621,
    76.325,       607,
   76.3452,       592,
   76.3653,       624,
   76.3855,       608,
   76.4057,       597,
   76.4258,       623,
    76.446,       596,
   76.4662,       610,
   76.4864,       641,
   76.5065,       606,
   76.5267,       587,
   76.5469,       637,
    76.567,       616,
   76.5872,       555,
   76.6074,       601,
   76.6275,       631,
   76.6477,       640,
   76.6679,       637,
    76.688,       577,
   76.7082,       577,
   76.7284,       636,
   76.7485,       646,
   76.7687,       590,
   76.7889,       634,
    76.809,       600,
   76.8292,       611,
   76.8494,       608,
   76.8696,       638,
   76.8897,       585,
   76.9099,       614,
   76.9301,       627,
   76.9502,       625,
   76.9704,       611,
   76.9906,       618,
   77.0107,       609,
   77.0309,       635,
   77.0511,       619,
   77.0712,       611,
   77.0914,       644,
   77.1116,       586,
   77.1317,       618,
   77.1519,       628,
   77.1721,       674,
   77.1923,       629,
   77.2124,       602,
   77.2326,       593,
   77.2528,       596,
   77.2729,       619,
   77.2931,       635,
   77.3133,       592,
   77.3334,       631,
   77.3536,       589,
   77.3738,       609,
   77.3939,       574,
   77.4141,       597,
   77.4343,       592,
   77.4544,       608,
   77.4746,       598,
   77.4948,       618,
   77.5149,       612,
   77.5351,       599,
   77.5553,       626,
   77.5755,       620,
   77.5956,       606,
   77.6158,       637,
    77.636,       595,
   77.6561,       607,
   77.6763,       593,
   77.6965,       632,
   77.7166,       584,
   77.7368,       648,
    77.757,       612,
   77.7771,       624,
   77.7973,       609,
   77.8175,       609,
   77.8376,       606,
   77.8578,       635,
    77.878,       586,
   77.8981,       608,
   77.9183,       635,
   77.9385,       608,
   77.9587,       607,
   77.9788,       622,
    77.999,       589,
