;RAW4.00
[RawHeader]
Date=11/25/2025
EstimatedTotalTime=426.6
FurtherDQLReading=0
HardwareIndicator=65519
MeasuredTotalTime=4.29424
MeasurementFlag=1
NumberOfMeasuredRanges=1
NumberOfRanges=1
Time=22:30:21

[VarInfo]
Type=USER
Flags=0
Value=Lab Manager

[VarInfo]
Type=SAMPLEID
Flags=0
Value=Commander Sample ID

[VarInfo]
Type=COMMENT
Flags=0
Value=

[VarInfo]
Type=UTF
Flags=0
Value=

[VarInfo]
Type=CREATOR
Flags=0
Value=V5Converter

[VarInfo]
Type=CREATOR_VERSION
Flags=0
Value=4.4.16.0

[HardwareConfiguration]
AbsorptionFactor=9999
ActivateAbsorber=0
Alpha1=1.5406
Alpha2=1.54439
AlphaAverage=1.54184
AlphaRatio=0.5
Analyzer=0
Anode=Cu
AntiScatteringSlit=9999
BeamOpticsFlags=0
Beta=1.39222
BetaRelativeIntensity=0
DeactivateAbsorber=0
DetectorSlit=9999
DivergenceSlit=9999
GoniometerControl=0
GoniometerDiameter=282
GoniometerModel=256
GoniometerStage=7
Monochromator=0
NearSampleSlit=9999
PrimarySollerSlit=9999
SampleChanger=0
SecondSollerSlit=9999
SynchronousAxis=0
ThinFilmAttachment=9999
WaveUnit=A

[RangeHeader]
ActuallyUsedLambda=1.54184
AdditionalDetectorMask=257
DataRecordLength=4
DelayTime=0
DisplayPlaneNumber=0
EstimatedScanTime=427
ExtraParametersMask=0
GeneratorCurrent=10
GeneratorVoltage=30
Increment=0.0201685
Increment3=0
NumberOfCompletedData=1885
NumberOfCounts=1
NumberOfDetectors=0
NumberOfDrives=3
NumberOfEncoderDrives=0
NumberOfMeasuredData=1885
NumberOfVaryingParameters=0
RangeStartTime=0
RotationSpeed=0
ScanMode=1
ScanType=Locked Coupled
SimulatedMeasConditions=0
SlitChangerIn=0
SmootingWidth=0
Start=40.0015
Steps=1885
SynchronousRotation=0
Time=33

[VarInfo]
Type=PSD_DISCRIM
Flags=0
Value=0.11;0.5

[VarInfo]
Type=OPTICS_V5
Flags=0
Value=H4sIAAAAAAAEAO1d63KjOhJ+Fda/zqmtBIPtXKaITzm2J+OaOHbFTnKmtrZcBORYZzC4AOey//d99hl2X2x1QViIS8C3JBN+TCaodWm6+2vUUkfS/nieW9IjcD3o2GcV5bBakYBtOCa0H84qS396oBxV/mhqF44NnTnwgdt25gvHBrbf0X1dQq1t78uzB88qM99ffJHlp6enw6faoeM+yGq1qsh/9i9HxgzM9QNoe75uG6AStjJfb1WRbqEH7y1wpc/BWWXFR0joAM9w4cInL/Bj4UHLsSW+3oXrLBc9NBZ6t3Pgojcb3P8FDH+o+7OzitwBj9AAMt+CrxUfl1Lblu55QRehTORzoM8XqLDt2L4ObeBy/coBc6yHluEvdYtxoR6o1ePT02O5h8TkLue4tzhrTW2EZGjqqBswQr3oFvyXjl+9OdUtD2hyGln7c259hcAyrwHqHhq4EDFpA/KbJ8lNjfKD1ToCFipvdm00JDA1OUbR6Btwou9Ab2HpL824AjQ5tXK8m+bF4OrHhPzodEft64TGrBVWDOsoPhpP1bBWhrxWvISy1r0hIUP+4r8skMLHrm78xG8sGODQhXPdfSHkZBMMakgD9GxISBvSeHkPOIFIQeOidilHx44baRI9r5mSRmyEDSxUYBJZ3blu/xy4JnCvAfYzAL0wsdX3b8s5NVnMwIfj6+8T9KPV/l7IxHm5Jhp5z0OvBh9BE+kGCS98DAk920dCZMIVSikeHA9SJulgmhwp1bAq2ZMXfZT4B2LSAxc+QFu3ogSlwl6OWi7Ssb/0moPwnSLFGmsYPPedJdIj0qJQrgWE0MJ5JCOdEXICmjFtjmnJUA7J0tRxpRHQLUBtYA3AytxYcejGiMm4JZa46kmmLG0LrhEWBa3xcus++8A2MZDfDYZpCWdMkQKtj5nwHfcltGVFk+OFGseMJxH2qHoYWND7cnJosmJN5ku1uCnh1+H65qyTKx3Y545jAR1NEG5s6BPpdiDSG56bXcI59IlYwiKvWdVk7knrgKm+tPxb3VoCboigVyQ96CPXTshnFewlKri/oQta5l9LD8GnYEuZYx67mbHTJoqe6ZblPK0cjVCOarZnwPgJzFUVVqC1ESPOHKsWvx33pNH5Zl7erhEyxkg2xVq1lr7TdoHug6HrLIDrvzAWEyiR9/eIRfdMhLKr5fweuE21rslCEdaQRS08UPF//xMyUSUc9B0TNG8Quqbos4xMnTwz90Y+PzEHluy7tuWt5HgP/ND5vNXOHBXjLvaN2aNbYuh5A79Evm3IJvErCL6JJ23LP418rD3OPSHRTOHDEjnla/gw85sIdabECnU0BoKwUKWYS+vrz5fAfvBnTbXRwKJhj2nOjrJISkNktZevObqMVm/q5DL4SnFwGS02cm5pFninPwKqkpa1mOmKYIUieVuWOJh2nCVqyWzxf//ehzWm2Nxw9uJBQ7dIeQJnTA/KYaNePXrNFtfo7ca2MPfItOjcf/WMZelYS+paugfVBtErK9H60Ibz5bx5oBwenx4fndaUWv3kSK0pjePu32vVE4S4oAZGIvklvWZQ4W0Rs4b0UpC0Rk/7QJiajTD10yOsXjvdJsRYdyXGNhLfFkDGuto1yh6Bqz+IoV6M/ulxppzUt4kz1l2Js43EtwWcsa52jLNz4OupIMPET46w2qmqqttD2Kq7EmEbiW9jhK262jHCrvGaRirECHVXGHuvCFutth02NsJWrKMSVWsKbh08xTrZCZK+OsbSG7gQ2D5ZHRSgJJK3tspG1g4H057tH9XfH6CibEVXr/OjKbkXhfRCBYDfqOeDOWLs0nmABl3VvJn0rm5bl73OpP2tN9TkFYkJfAye/WbPftQtiMQzg4uVjCJaIvW07+CFjI1lEf6uyTEWsnm67F2lsnIJbSARW0kbWtlk6OEgY+yhA20/e3B1k8GZLoaD0auqCHeKD6S58wgk35HmwJjpNrYKCTmTxd/SeKxl8/ienF2WXefzdFk9bOTm6N5Lz546UqiqhAVciZbr3FOQY3BWIVUkVBrdJr+ZtC6H31rRcrGRhEeyyEjkXXKxo0bYURPZUVPYUbPYUQuzEywL8PxEyoQBQloib5PW7UUWe0HrokySmCrg8D78PeybkkWGzrvjVjIvuH4+FiIbUQEDqBXeyxN46LJSkY3uZbffvRqnSMV2TCAFbaXVSDlkQmfBvNq4EkHsASVZZdetcW+QpTTSOp+8YlOLgL9pYnk4ToQicvl10J4MrpMZJONJkeZyfMe6Ed+xvgA2skTfcYU8TFacvPmcsQFLZ8dr7r82tXQiP3O7dSw/voYXlO4q5vl5u6WEjcypLxqFfRNqVSHyCL4FKaFHctihVBMCjFp1f7FErbF+MBEXRsEvZLo55TW19tJ1sT+LmlpQuitTm7f2YWpolHD6sQ1TaySFsh/E0uKy2LulDZ0nkgHOmxQp25WV3aUEnW+xcHMnRJr5lluqhymm+EkWW+4491hde7Ul3ssWbV9+7YtfJA0UTQyNGXBfyVbbPA8ud74bklUw60j9YgWfilQ/I4dzraYmBmuZ2QhiKJW9qxqLdLI3h6IxR/YytzAXT1vD42MIIXVJnC4nR8cylyaJ7OZRhxZeJcCPHu2eWH2ZQFkmUJYJlGUCZZlA+fE2xcsEyvezJV4mUP6aCCsTKN8TxsoEyl8VZ2UC5XvCWZlA+ashrEygfE8IKxMoywTKMoGyTKAsEyjLBMoygbJMoCwTKMsEyjKBskygLBMoywTKMoGyTKAsEyjLBMoygbJMoHzr+KNMoCwTKD9tAiXLkUS/iumT7KzT+Cmg4tm7GScqd+cL/4UkG4arGcVOT+72h4PRhP4scnoyGTg0xcTzk2U+BzLzcGMl7XBjde+HGw8WbefceR5MR45lATfhiGNKyDjkmKsg/WbotmTQQ8ElNJZEifQE7N/XgX9k+LhXSSBnuYaE6hunwkb7FPSZfOxxRGTIPPKL8PePe2KymphYK0bAR+scevtxXAin6Q2diJrmRGpv50S+wmdgEkNlcw/RmVjQz3IliCz1U2CAaRv4kdXICV5EJGb6ELHy5h6E61FQZYr/YA2o98gntQ/sOmq5XMfxeudlE7OmVzSsTJpYMhZe0hcRy1SR/jGf/zPDjH/DR/7fA2QfErQ9hAVgol98R9I5hWWaMq5mhBds4KeJUp0oaQYcIb5mwIVtN52ZmPP5qH/5US30lx930PRnYm4HLtvZktP8/WxBxzgL44DNsuvjPeVdZqh+7nWGuODWWWeI97KTtI5vABumgB1a+LnBszXslNBZz+i3gpzt3wSirjOzGenzhQXuZgBYY/QC/KUgIkkjH65UJ0ChmfamMj+F+lCxGJtFbxiJ1dIisfpGkRjhMR6HvT9h3thLD5hkeHHgLInKwm1g17oJl16CldWVYB+fXrg3mE494KdZfesZevz3Iay2B1ceYybnbh1ywVU1LSlVPTypn6qNRkNN8LvHjcOTRv24dqQqvK8VhNAM7mETbitc+w7DEUCRgJl9i2FYh7v9roNCXwNnMmzhLkORh4SYKLFGsfsMwz42ifVFRj70nYaF9FrM/4zwzYaj4jcbRuW787sNw+F2cbvhyRss3uHlOks3wMyxzMQtgMsX+xm8pBxzcfnj6s/ujy654bCjSsOZ7olX4OYEsRyOEwezQMpa3mDWKOO8X3k4Wj2jProvYAvX6KYzLmrzl7v28CTPUlxNiU9Yi8wL0ecUu0XdWrmWfniNJk2pxn6HJHazGl4xZ9PpjyfkXwFHw4ba6R6gstmscZebgP09bgIKCIswkLYN2N/zNmAmj6JSs3YC+59rJ1Cp53Ii1c+wFVhGSkUjpbRAqXF4dHrSUJRqPWmBqqEcHldP68dqfQeB0sontAHGieA9hcKI4+SmzLSadMAw70kjnLfkkW8dVkPLMIDnOS4E3hoRE+Mi7j2jlLwRUvyl1/ekrIcPHRqtqcpiLudicNWekB9FHA7lZ+eh0Ri4qHQnkdHp3mdFwxkkShPAfO0EGXBRYgTUqKlErdE1Wb0CGJXZGHSdNqGDKCsJ1TJnP6vqMuJUZpxuDuAUxgVFpsREEgUYMFu+rxszPNBZ5WDPRwluc5pzmitr4SQ+y+l5TBQhKMMCjfMcZLfIWj48ALPjYkzSv8ZE3eHvWs9sIu2S3oNHTCEVRwtgwGnwt6KsUpyC4BLvvcgEK46DYs5u+K03mpAfRZxdFKHbnGBVi0yvQisOP5lEYfRDEPwf22IqXU7pckqXI7qcECvsd+8VLsZPznhGTjB6jZVIzZz8ZA+dc9yig6ZEJvFifFQxXo8YAd9H0PIkfi6GHAXNPKxILbzB7vVR6AbplI5NtLGOuVT/5i2e1Rn4EFu+VFtBkewhB6uqmiyUa3yqI/WAkWUTj/6JxSqYYK6D6Pv/u9RXv2COAAA=

[PSD]
ActualTwoTheta=9999
FirstUsedChannel=0
FixedPSD=0
PSDOpening=4.99171
PSDType=5

[Drive]
DriveFlags=1
DriveName=2Theta
DriveNumber=2
DriveOffset=0
OffsetIndex=0
OscillationAmplitude=0
OscillationSpeed=0
StartPosition=40.0015

[Drive]
DriveFlags=1
DriveName=Theta
DriveNumber=1
DriveOffset=0
OffsetIndex=0
OscillationAmplitude=0
OscillationSpeed=0
StartPosition=20.0007

[Drive]
DriveFlags=1
DriveName=Phi
DriveNumber=3
DriveOffset=0
OffsetIndex=0
OscillationAmplitude=0
OscillationSpeed=0
StartPosition=0

[Data]
     Angle,       PSD,
   40.0015,       632,
   40.0217,       642,
   40.0418,       641,
    40.062,       636,
   40.0822,       631,
   40.1023,       634,
   40.1225,       615,
   40.1427,       611,
   40.1628,       668,
    40.183,       658,
   40.2032,       628,
   40.2233,       660,
   40.2435,       657,
   40.2637,       669,
   40.2838,       664,
    40.304,       657,
   40.3242,       652,
   40.3444,       672,
   40.3645,       617,
   40.3847,       636,
   40.4049,       640,
    40.425,       641,
   40.4452,       641,
   40.4654,       624,
   40.4855,       644,
   40.5057,       642,
   40.5259,       691,
    40.546,       676,
   40.5662,       656,
   40.5864,       643,
   40.6065,       677,
   40.6267,       693,
   40.6469,       678,
   40.6671,       666,
   40.6872,       665,
   40.7074,       648,
   40.7276,       696,
   40.7477,       690,
   40.7679,       714,
   40.7881,       630,
   40.8082,       680,
   40.8284,       675,
   40.8486,       642,
   40.8687,       652,
   40.8889,       674,
   40.9091,       666,
   40.9292,       654,
   40.9494,       703,
   40.9696,       635,
   40.9897,       662,
   41.0099,       692,
   41.0301,       661,
   41.0503,       691,
   41.0704,       715,
   41.0906,       695,
   41.1108,       675,
   41.1309,       657,
   41.1511,       688,
   41.1713,       703,
   41.1914,       691,
   41.2116,       747,
   41.2318,       719,
   41.2519,       700,
   41.2721,       697,
   41.2923,       740,
   41.3124,       712,
   41.3326,       721,
   41.3528,       657,
   41.3729,       707,
   41.3931,       653,
   41.4133,       731,
   41.4335,       671,
   41.4536,       680,
   41.4738,       747,
    41.494,       732,
   41.5141,       712,
   41.5343,       722,
   41.5545,       722,
   41.5746,       671,
   41.5948,       705,
    41.615,       718,
   41.6351,       736,
   41.6553,       702,
   41.6755,       719,
   41.6956,       697,
   41.7158,       763,
    41.736,       728,
   41.7562,       711,
   41.7763,       725,
   41.7965,       759,
   41.8167,       737,
   41.8368,       735,
    41.857,       727,
   41.8772,       777,
   41.8973,       742,
   41.9175,       817,
   41.9377,       815,
   41.9578,       838,
    41.978,       770,
   41.9982,       814,
   42.0183,       808,
   42.0385,       864,
   42.0587,       811,
   42.0788,       878,
    42.099,       867,
   42.1192,       839,
   42.1394,       819,
   42.1595,       849,
   42.1797,       893,
   42.1999,       894,
     42.22,       890,
   42.2402,       908,
   42.2604,       844,
   42.2805,       857,
   42.3007,       874,
   42.3209,       909,
    42.341,       902,
   42.3612,       954,
   42.3814,       984,
   42.4015,       945,
   42.4217,       932,
   42.4419,       959,
    42.462,       927,
   42.4822,       971,
   42.5024,      1023,
   42.5226,      1027,
   42.5427,       978,
   42.5629,      1025,
   42.5831,       970,
   42.6032,      1025,
   42.6234,      1030,
   42.6436,      1039,
   42.6637,      1128,
   42.6839,      1103,
   42.7041,      1109,
   42.7242,      1141,
   42.7444,      1138,
   42.7646,      1145,
   42.7847,      1210,
   42.8049,      1244,
   42.8251,      1270,
   42.8453,      1332,
   42.8654,      1369,
   42.8856,      1413,
   42.9058,      1465,
   42.9259,      1549,
   42.9461,      1598,
   42.9663,      1656,
   42.9864,      1806,
   43.0066,      1892,
   43.0268,      1919,
   43.0469,      2060,
   43.0671,      2227,
   43.0873,      2384,
   43.1074,      2478,
   43.1276,      2795,
   43.1478,      3046,
   43.1679,      3347,
   43.1881,      3648,
   43.2083,      4121,
   43.2285,      4515,
   43.2486,      5104,
   43.2688,      5964,
    43.289,      6843,
   43.3091,      7944,
   43.3293,      9286,
   43.3495,     10728,
   43.3696,     12746,
   43.3898,     14388,
     43.41,     16427,
   43.4301,     17555,
   43.4503,     18744,
   43.4705,     19026,
   43.4906,     18862,
   43.5108,     17838,
    43.531,     16946,
   43.5511,     16038,
   43.5713,     15108,
   43.5915,     13341,
   43.6117,     12033,
   43.6318,     10316,
    43.652,      9251,
   43.6722,      7905,
   43.6923,      6866,
   43.7125,      6063,
   43.7327,      5427,
   43.7528,      4664,
    43.773,      4142,
   43.7932,      3810,
   43.8133,      3332,
   43.8335,      3024,
   43.8537,      2794,
   43.8738,      2593,
    43.894,      2479,
   43.9142,      2242,
   43.9344,      2166,
   43.9545,      1979,
   43.9747,      1893,
   43.9949,      1854,
    44.015,      1685,
   44.0352,      1553,
   44.0554,      1570,
   44.0755,      1560,
   44.0957,      1494,
   44.1159,      1386,
    44.136,      1408,
   44.1562,      1345,
   44.1764,      1372,
   44.1965,      1205,
   44.2167,      1271,
   44.2369,      1239,
    44.257,      1197,
   44.2772,      1235,
   44.2974,      1112,
   44.3176,      1094,
   44.3377,      1135,
   44.3579,      1075,
   44.3781,      1073,
   44.3982,      1060,
   44.4184,      1051,
   44.4386,      1072,
   44.4587,      1029,
   44.4789,      1045,
   44.4991,      1026,
   44.5192,       974,
   44.5394,      1003,
   44.5596,       969,
   44.5797,       984,
   44.5999,       974,
   44.6201,       930,
   44.6402,       907,
   44.6604,       970,
   44.6806,       918,
   44.7008,       923,
   44.7209,       891,
   44.7411,       932,
   44.7613,       923,
   44.7814,       957,
   44.8016,       858,
   44.8218,       881,
   44.8419,       907,
   44.8621,       882,
   44.8823,       846,
   44.9024,       866,
   44.9226,       864,
   44.9428,       868,
   44.9629,       930,
   44.9831,       853,
   45.0033,       818,
   45.0235,       831,
   45.0436,       804,
   45.0638,       840,
    45.084,       838,
   45.1041,       816,
   45.1243,       828,
   45.1445,       876,
   45.1646,       853,
   45.1848,       859,
    45.205,       793,
   45.2251,       857,
   45.2453,       802,
   45.2655,       824,
   45.2856,       836,
   45.3058,       814,
    45.326,       846,
   45.3461,       819,
   45.3663,       802,
   45.3865,       804,
   45.4067,       834,
   45.4268,       848,
    45.447,       804,
   45.4672,       817,
   45.4873,       791,
   45.5075,       800,
   45.5277,       789,
   45.5478,       824,
    45.568,       820,
   45.5882,       812,
   45.6083,       783,
   45.6285,       803,
   45.6487,       753,
   45.6688,       818,
    45.689,       782,
   45.7092,       830,
   45.7294,       800,
   45.7495,       779,
   45.7697,       785,
   45.7899,       764,
     45.81,       779,
   45.8302,       802,
   45.8504,       800,
   45.8705,       806,
   45.8907,       765,
   45.9109,       755,
    45.931,       789,
   45.9512,       786,
   45.9714,       772,
   45.9915,       808,
   46.0117,       738,
   46.0319,       789,
    46.052,       751,
   46.0722,       764,
   46.0924,       780,
   46.1126,       717,
   46.1327,       770,
   46.1529,       780,
   46.1731,       760,
   46.1932,       731,
   46.2134,       750,
   46.2336,       714,
   46.2537,       757,
   46.2739,       730,
   46.2941,       796,
   46.3142,       758,
   46.3344,       733,
   46.3546,       793,
   46.3747,       759,
   46.3949,       791,
   46.4151,       759,
   46.4352,       777,
   46.4554,       773,
   46.4756,       823,
   46.4958,       754,
   46.5159,       784,
   46.5361,       761,
   46.5563,       723,
   46.5764,       776,
   46.5966,       737,
   46.6168,       771,
   46.6369,       770,
   46.6571,       796,
   46.6773,       742,
   46.6974,       772,
   46.7176,       796,
   46.7378,       798,
   46.7579,       740,
   46.7781,       767,
   46.7983,       798,
   46.8185,       751,
   46.8386,       763,
   46.8588,       775,
    46.879,       729,
   46.8991,       772,
   46.9193,       759,
   46.9395,       771,
   46.9596,       724,
   46.9798,       721,
        47,       738,
   47.0201,       683,
   47.0403,       771,
   47.0605,       737,
   47.0806,       756,
   47.1008,       781,
    47.121,       757,
   47.1411,       699,
   47.1613,       788,
   47.1815,       766,
   47.2017,       707,
   47.2218,       801,
    47.242,       750,
   47.2622,       770,
   47.2823,       785,
   47.3025,       752,
   47.3227,       739,
   47.3428,       764,
    47.363,       723,
   47.3832,       771,
   47.4033,       720,
   47.4235,       702,
   47.4437,       792,
   47.4638,       747,
    47.484,       714,
   47.5042,       708,
   47.5243,       739,
   47.5445,       737,
   47.5647,       742,
   47.5849,       729,
    47.605,       743,
   47.6252,       761,
   47.6454,       718,
   47.6655,       783,
   47.6857,       760,
   47.7059,       733,
    47.726,       727,
   47.7462,       747,
   47.7664,       742,
   47.7865,       739,
   47.8067,       753,
   47.8269,       704,
    47.847,       741,
   47.8672,       776,
   47.8874,       752,
   47.9076,       755,
   47.9277,       753,
   47.9479,       726,
   47.9681,       766,
   47.9882,       749,
   48.0084,       763,
   48.0286,       760,
   48.0487,       719,
   48.0689,       777,
   48.0891,       718,
   48.1092,       770,
   48.1294,       704,
   48.1496,       765,
   48.1697,       759,
   48.1899,       738,
   48.2101,       696,
   48.2302,       708,
   48.2504,       691,
   48.2706,       731,
   48.2908,       719,
   48.3109,       731,
   48.3311,       737,
   48.3513,       779,
   48.3714,       739,
   48.3916,       743,
   48.4118,       769,
   48.4319,       795,
   48.4521,       700,
   48.4723,       715,
   48.4924,       748,
   48.5126,       721,
   48.5328,       771,
   48.5529,       769,
   48.5731,       737,
   48.5933,       803,
   48.6134,       711,
   48.6336,       752,
   48.6538,       782,
    48.674,       772,
   48.6941,       776,
   48.7143,       776,
   48.7345,       792,
   48.7546,       801,
   48.7748,       805,
    48.795,       752,
   48.8151,       762,
   48.8353,       783,
   48.8555,       755,
   48.8756,       765,
   48.8958,       801,
    48.916,       777,
   48.9361,       817,
   48.9563,       818,
   48.9765,       785,
   48.9967,       805,
   49.0168,       803,
    49.037,       814,
   49.0572,       822,
   49.0773,       794,
   49.0975,       802,
   49.1177,       814,
   49.1378,       855,
    49.158,       819,
   49.1782,       841,
   49.1983,       879,
   49.2185,       813,
   49.2387,       794,
   49.2588,       834,
    49.279,       849,
   49.2992,       824,
   49.3193,       820,
   49.3395,       856,
   49.3597,       875,
   49.3799,       844,
      49.4,       813,
   49.4202,       824,
   49.4404,       857,
   49.4605,       832,
   49.4807,       784,
   49.5009,       939,
    49.521,       910,
   49.5412,       903,
   49.5614,       963,
   49.5815,       966,
   49.6017,       921,
   49.6219,       908,
    49.642,       992,
   49.6622,       936,
   49.6824,       953,
   49.7025,      1033,
   49.7227,       974,
   49.7429,      1012,
   49.7631,      1035,
   49.7832,      1010,
   49.8034,      1040,
   49.8236,      1085,
   49.8437,      1158,
   49.8639,      1165,
   49.8841,      1128,
   49.9042,      1146,
   49.9244,      1186,
   49.9446,      1212,
   49.9647,      1216,
   49.9849,      1244,
   50.0051,      1357,
   50.0252,      1387,
   50.0454,      1430,
   50.0656,      1542,
   50.0858,      1575,
   50.1059,      1620,
   50.1261,      1654,
   50.1463,      1783,
   50.1664,      1889,
   50.1866,      1943,
   50.2068,      1883,
   50.2269,      2139,
   50.2471,      2260,
   50.2673,      2399,
   50.2874,      2431,
   50.3076,      2575,
   50.3278,      2821,
   50.3479,      2885,
   50.3681,      3173,
   50.3883,      3295,
   50.4084,      3541,
   50.4286,      3717,
   50.4488,      3807,
    50.469,      3933,
   50.4891,      4051,
   50.5093,      4282,
   50.5295,      4441,
   50.5496,      4509,
   50.5698,      4669,
     50.59,      4537,
   50.6101,      4574,
   50.6303,      4446,
   50.6505,      4367,
   50.6706,      4468,
   50.6908,      4320,
    50.711,      4089,
   50.7311,      3920,
   50.7513,      3777,
   50.7715,      3594,
   50.7917,      3446,
   50.8118,      3237,
    50.832,      3070,
   50.8522,      2947,
   50.8723,      2768,
   50.8925,      2667,
   50.9127,      2456,
   50.9328,      2266,
    50.953,      2208,
   50.9732,      2057,
   50.9933,      1948,
   51.0135,      1933,
   51.0337,      1747,
   51.0538,      1658,
    51.074,      1591,
   51.0942,      1581,
   51.1143,      1457,
   51.1345,      1398,
   51.1547,      1276,
   51.1749,      1335,
    51.195,      1249,
   51.2152,      1224,
   51.2354,      1153,
   51.2555,      1168,
   51.2757,      1092,
   51.2959,      1089,
    51.316,      1026,
   51.3362,      1055,
   51.3564,      1037,
   51.3765,      1008,
   51.3967,       934,
   51.4169,      1007,
    51.437,       958,
   51.4572,       932,
   51.4774,       928,
   51.4975,       905,
   51.5177,       837,
   51.5379,       833,
   51.5581,       839,
   51.5782,       911,
   51.5984,       923,
   51.6186,       824,
   51.6387,       840,
   51.6589,       835,
   51.6791,       804,
   51.6992,       771,
   51.7194,       809,
   51.7396,       785,
   51.7597,       821,
   51.7799,       829,
   51.8001,       773,
   51.8202,       771,
   51.8404,       767,
   51.8606,       750,
   51.8808,       789,
   51.9009,       793,
   51.9211,       763,
   51.9413,       785,
   51.9614,       763,
   51.9816,       756,
   52.0018,       790,
   52.0219,       732,
   52.0421,       758,
   52.0623,       739,
   52.0824,       752,
   52.1026,       714,
   52.1228,       733,
   52.1429,       725,
   52.1631,       811,
   52.1833,       662,
   52.2034,       720,
   52.2236,       769,
   52.2438,       695,
    52.264,       707,
   52.2841,       687,
   52.3043,       738,
   52.3245,       737,
   52.3446,       702,
   52.3648,       729,
    52.385,       729,
   52.4051,       691,
   52.4253,       712,
   52.4455,       710,
   52.4656,       731,
   52.4858,       711,
    52.506,       707,
   52.5261,       694,
   52.5463,       725,
   52.5665,       770,
   52.5866,       673,
   52.6068,       708,
    52.627,       678,
   52.6472,       675,
   52.6673,       701,
   52.6875,       731,
   52.7077,       666,
   52.7278,       673,
    52.748,       698,
   52.7682,       726,
   52.7883,       731,
   52.8085,       690,
   52.8287,       658,
   52.8488,       665,
    52.869,       629,
   52.8892,       718,
   52.9093,       679,
   52.9295,       737,
   52.9497,       694,
   52.9699,       676,
     52.99,       725,
   53.0102,       718,
   53.0304,       679,
   53.0505,       693,
   53.0707,       697,
   53.0909,       675,
    53.111,       666,
   53.1312,       641,
   53.1514,       691,
   53.1715,       669,
   53.1917,       689,
   53.2119,       670,
    53.232,       707,
   53.2522,       639,
   53.2724,       655,
   53.2925,       689,
   53.3127,       641,
   53.3329,       692,
   53.3531,       668,
   53.3732,       681,
   53.3934,       695,
   53.4136,       661,
   53.4337,       697,
   53.4539,       703,
   53.4741,       647,
   53.4942,       650,
   53.5144,       693,
   53.5346,       700,
   53.5547,       657,
   53.5749,       677,
   53.5951,       615,
   53.6152,       673,
   53.6354,       638,
   53.6556,       690,
   53.6757,       650,
   53.6959,       700,
   53.7161,       736,
   53.7363,       636,
   53.7564,       679,
   53.7766,       713,
   53.7968,       678,
   53.8169,       679,
   53.8371,       626,
   53.8573,       681,
   53.8774,       653,
   53.8976,       679,
   53.9178,       635,
   53.9379,       714,
   53.9581,       667,
   53.9783,       645,
   53.9984,       681,
   54.0186,       707,
   54.0388,       635,
    54.059,       659,
   54.0791,       686,
   54.0993,       659,
   54.1195,       673,
   54.1396,       658,
   54.1598,       656,
     54.18,       687,
   54.2001,       607,
   54.2203,       653,
   54.2405,       649,
   54.2606,       641,
   54.2808,       650,
    54.301,       643,
   54.3211,       680,
   54.3413,       630,
   54.3615,       702,
   54.3816,       655,
   54.4018,       657,
    54.422,       634,
   54.4422,       666,
   54.4623,       636,
   54.4825,       654,
   54.5027,       669,
   54.5228,       642,
    54.543,       652,
   54.5632,       664,
   54.5833,       694,
   54.6035,       639,
   54.6237,       605,
   54.6438,       651,
    54.664,       702,
   54.6842,       683,
   54.7043,       647,
   54.7245,       656,
   54.7447,       669,
   54.7648,       618,
    54.785,       638,
   54.8052,       666,
   54.8254,       656,
   54.8455,       673,
   54.8657,       609,
   54.8859,       628,
    54.906,       651,
   54.9262,       637,
   54.9464,       654,
   54.9665,       681,
   54.9867,       670,
   55.0069,       674,
    55.027,       659,
   55.0472,       721,
   55.0674,       628,
   55.0875,       641,
   55.1077,       644,
   55.1279,       649,
   55.1481,       674,
   55.1682,       626,
   55.1884,       657,
   55.2086,       662,
   55.2287,       665,
   55.2489,       627,
   55.2691,       637,
   55.2892,       652,
   55.3094,       648,
   55.3296,       664,
   55.3497,       635,
   55.3699,       636,
   55.3901,       713,
   55.4102,       629,
   55.4304,       669,
   55.4506,       616,
   55.4707,       674,
   55.4909,       628,
   55.5111,       660,
   55.5313,       615,
   55.5514,       655,
   55.5716,       667,
   55.5918,       682,
   55.6119,       675,
   55.6321,       674,
   55.6523,       652,
   55.6724,       658,
   55.6926,       638,
   55.7128,       592,
   55.7329,       593,
   55.7531,       644,
   55.7733,       671,
   55.7934,       658,
   55.8136,       712,
   55.8338,       653,
    55.854,       682,
   55.8741,       677,
   55.8943,       618,
   55.9145,       606,
   55.9346,       655,
   55.9548,       639,
    55.975,       638,
   55.9951,       666,
   56.0153,       630,
   56.0355,       657,
   56.0556,       627,
   56.0758,       649,
    56.096,       620,
   56.1161,       628,
   56.1363,       617,
   56.1565,       683,
   56.1766,       673,
   56.1968,       635,
    56.217,       686,
   56.2372,       641,
   56.2573,       622,
   56.2775,       690,
   56.2977,       687,
   56.3178,       635,
    56.338,       655,
   56.3582,       617,
   56.3783,       647,
   56.3985,       657,
   56.4187,       633,
   56.4388,       620,
    56.459,       649,
   56.4792,       645,
   56.4993,       640,
   56.5195,       616,
   56.5397,       618,
   56.5598,       625,
     56.58,       588,
   56.6002,       633,
   56.6204,       678,
   56.6405,       681,
   56.6607,       640,
   56.6809,       665,
    56.701,       680,
   56.7212,       645,
   56.7414,       627,
   56.7615,       685,
   56.7817,       666,
   56.8019,       630,
    56.822,       650,
   56.8422,       638,
   56.8624,       670,
   56.8825,       633,
   56.9027,       632,
   56.9229,       661,
   56.9431,       613,
   56.9632,       619,
   56.9834,       608,
   57.0036,       607,
   57.0237,       624,
   57.0439,       676,
   57.0641,       657,
   57.0842,       656,
   57.1044,       668,
   57.1246,       685,
   57.1447,       660,
   57.1649,       627,
   57.1851,       630,
   57.2052,       651,
   57.2254,       633,
   57.2456,       672,
   57.2657,       613,
   57.2859,       654,
   57.3061,       655,
   57.3263,       610,
   57.3464,       624,
   57.3666,       625,
   57.3868,       684,
   57.4069,       629,
   57.4271,       669,
   57.4473,       623,
   57.4674,       620,
   57.4876,       675,
   57.5078,       637,
   57.5279,       622,
   57.5481,       582,
   57.5683,       656,
   57.5884,       640,
   57.6086,       624,
   57.6288,       610,
   57.6489,       673,
   57.6691,       574,
   57.6893,       656,
   57.7095,       614,
   57.7296,       622,
   57.7498,       615,
     57.77,       647,
   57.7901,       656,
   57.8103,       666,
   57.8305,       670,
   57.8506,       642,
   57.8708,       637,
    57.891,       625,
   57.9111,       687,
   57.9313,       621,
   57.9515,       676,
   57.9716,       677,
   57.9918,       613,
    58.012,       660,
   58.0322,       627,
   58.0523,       619,
   58.0725,       599,
   58.0927,       671,
   58.1128,       610,
    58.133,       678,
   58.1532,       690,
   58.1733,       639,
   58.1935,       601,
   58.2137,       672,
   58.2338,       678,
    58.254,       664,
   58.2742,       627,
   58.2943,       635,
   58.3145,       609,
   58.3347,       588,
   58.3548,       592,
    58.375,       604,
   58.3952,       608,
   58.4154,       637,
   58.4355,       618,
   58.4557,       632,
   58.4759,       602,
    58.496,       632,
   58.5162,       604,
   58.5364,       599,
   58.5565,       579,
   58.5767,       614,
   58.5969,       652,
    58.617,       616,
   58.6372,       645,
   58.6574,       688,
   58.6775,       623,
   58.6977,       644,
   58.7179,       619,
    58.738,       654,
   58.7582,       623,
   58.7784,       643,
   58.7986,       621,
   58.8187,       623,
   58.8389,       642,
   58.8591,       612,
   58.8792,       616,
   58.8994,       664,
   58.9196,       623,
   58.9397,       606,
   58.9599,       646,
   58.9801,       666,
   59.0002,       618,
   59.0204,       609,
   59.0406,       625,
   59.0607,       632,
   59.0809,       636,
   59.1011,       651,
   59.1213,       656,
   59.1414,       624,
   59.1616,       631,
   59.1818,       608,
   59.2019,       638,
   59.2221,       686,
   59.2423,       629,
   59.2624,       624,
   59.2826,       676,
   59.3028,       633,
   59.3229,       620,
   59.3431,       605,
   59.3633,       595,
   59.3834,       637,
   59.4036,       604,
   59.4238,       629,
   59.4439,       683,
   59.4641,       581,
   59.4843,       633,
   59.5045,       617,
   59.5246,       605,
   59.5448,       624,
    59.565,       625,
   59.5851,       624,
   59.6053,       631,
   59.6255,       649,
   59.6456,       649,
   59.6658,       617,
    59.686,       632,
   59.7061,       609,
   59.7263,       635,
   59.7465,       615,
   59.7666,       632,
   59.7868,       625,
    59.807,       620,
   59.8271,       644,
   59.8473,       631,
   59.8675,       682,
   59.8877,       632,
   59.9078,       648,
    59.928,       614,
   59.9482,       606,
   59.9683,       647,
   59.9885,       638,
   60.0087,       636,
   60.0288,       657,
    60.049,       621,
   60.0692,       634,
   60.0893,       596,
   60.1095,       641,
   60.1297,       622,
   60.1498,       592,
     60.17,       664,
   60.1902,       646,
   60.2104,       586,
   60.2305,       598,
   60.2507,       664,
   60.2709,       625,
    60.291,       631,
   60.3112,       626,
   60.3314,       649,
   60.3515,       606,
   60.3717,       652,
   60.3919,       626,
    60.412,       624,
   60.4322,       633,
   60.4524,       619,
   60.4725,       655,
   60.4927,       613,
   60.5129,       692,
    60.533,       628,
   60.5532,       603,
   60.5734,       633,
   60.5936,       611,
   60.6137,       639,
   60.6339,       575,
   60.6541,       624,
   60.6742,       606,
   60.6944,       662,
   60.7146,       591,
   60.7347,       610,
   60.7549,       608,
   60.7751,       609,
   60.7952,       656,
   60.8154,       676,
   60.8356,       618,
   60.8557,       650,
   60.8759,       575,
   60.8961,       586,
   60.9163,       612,
   60.9364,       658,
   60.9566,       591,
   60.9768,       608,
   60.9969,       621,
   61.0171,       607,
   61.0373,       640,
   61.0574,       598,
   61.0776,       656,
   61.0978,       609,
   61.1179,       583,
   61.1381,       612,
   61.1583,       613,
   61.1784,       618,
   61.1986,       606,
   61.2188,       622,
   61.2389,       608,
   61.2591,       558,
   61.2793,       629,
   61.2995,       594,
   61.3196,       616,
   61.3398,       615,
     61.36,       602,
   61.3801,       635,
   61.4003,       623,
   61.4205,       641,
   61.4406,       617,
   61.4608,       600,
    61.481,       662,
   61.5011,       588,
   61.5213,       601,
   61.5415,       619,
   61.5616,       613,
   61.5818,       653,
    61.602,       601,
   61.6221,       576,
   61.6423,       642,
   61.6625,       600,
   61.6827,       683,
   61.7028,       630,
    61.723,       644,
   61.7432,       634,
   61.7633,       592,
   61.7835,       638,
   61.8037,       653,
   61.8238,       629,
    61.844,       620,
   61.8642,       640,
   61.8843,       603,
   61.9045,       572,
   61.9247,       612,
   61.9448,       642,
    61.965,       657,
   61.9852,       594,
   62.0054,       616,
   62.0255,       655,
   62.0457,       634,
   62.0659,       627,
    62.086,       638,
   62.1062,       633,
   62.1264,       632,
   62.1465,       630,
   62.1667,       665,
   62.1869,       633,
    62.207,       596,
   62.2272,       649,
   62.2474,       569,
   62.2675,       635,
   62.2877,       604,
   62.3079,       625,
    62.328,       595,
   62.3482,       643,
   62.3684,       650,
   62.3886,       647,
   62.4087,       633,
   62.4289,       619,
   62.4491,       588,
   62.4692,       616,
   62.4894,       641,
   62.5096,       631,
   62.5297,       615,
   62.5499,       652,
   62.5701,       616,
   62.5902,       612,
   62.6104,       599,
   62.6306,       596,
   62.6507,       606,
   62.6709,       597,
   62.6911,       636,
   62.7112,       643,
   62.7314,       611,
   62.7516,       623,
   62.7718,       633,
   62.7919,       592,
   62.8121,       661,
   62.8323,       645,
   62.8524,       610,
   62.8726,       585,
   62.8928,       611,
   62.9129,       603,
   62.9331,       611,
   62.9533,       637,
   62.9734,       616,
   62.9936,       627,
   63.0138,       672,
   63.0339,       622,
   63.0541,       622,
   63.0743,       574,
   63.0945,       638,
   63.1146,       602,
   63.1348,       627,
    63.155,       638,
   63.1751,       684,
   63.1953,       613,
   63.2155,       635,
   63.2356,       601,
   63.2558,       624,
    63.276,       626,
   63.2961,       659,
   63.3163,       541,
   63.3365,       660,
   63.3566,       655,
   63.3768,       629,
    63.397,       620,
   63.4171,       582,
   63.4373,       608,
   63.4575,       600,
   63.4777,       622,
   63.4978,       640,
    63.518,       635,
   63.5382,       615,
   63.5583,       610,
   63.5785,       612,
   63.5987,       622,
   63.6188,       588,
    63.639,       650,
   63.6592,       608,
   63.6793,       589,
   63.6995,       610,
   63.7197,       633,
   63.7398,       610,
     63.76,       617,
   63.7802,       598,
   63.8003,       620,
   63.8205,       602,
   63.8407,       623,
   63.8609,       609,
    63.881,       641,
   63.9012,       599,
   63.9214,       595,
   63.9415,       637,
   63.9617,       599,
   63.9819,       582,
    64.002,       647,
   64.0222,       637,
   64.0424,       594,
   64.0625,       587,
   64.0827,       631,
   64.1029,       644,
    64.123,       623,
   64.1432,       581,
   64.1634,       600,
   64.1836,       622,
   64.2037,       630,
   64.2239,       612,
   64.2441,       661,
   64.2642,       636,
   64.2844,       660,
   64.3046,       607,
   64.3247,       595,
   64.3449,       603,
   64.3651,       617,
   64.3852,       579,
   64.4054,       575,
   64.4256,       637,
   64.4457,       596,
   64.4659,       618,
   64.4861,       571,
   64.5062,       595,
   64.5264,       629,
   64.5466,       627,
   64.5668,       621,
   64.5869,       591,
   64.6071,       670,
   64.6273,       587,
   64.6474,       627,
   64.6676,       629,
   64.6878,       587,
   64.7079,       612,
   64.7281,       628,
   64.7483,       655,
   64.7684,       611,
   64.7886,       591,
   64.8088,       663,
   64.8289,       608,
   64.8491,       610,
   64.8693,       590,
   64.8894,       643,
   64.9096,       650,
   64.9298,       605,
     64.95,       604,
   64.9701,       622,
   64.9903,       610,
   65.0105,       630,
   65.0306,       637,
   65.0508,       618,
    65.071,       618,
   65.0911,       589,
   65.1113,       612,
   65.1315,       636,
   65.1516,       590,
   65.1718,       671,
    65.192,       627,
   65.2121,       615,
   65.2323,       612,
   65.2525,       624,
   65.2727,       656,
   65.2928,       630,
    65.313,       613,
   65.3332,       668,
   65.3533,       616,
   65.3735,       638,
   65.3937,       593,
   65.4138,       602,
    65.434,       650,
   65.4542,       590,
   65.4743,       644,
   65.4945,       626,
   65.5147,       617,
   65.5348,       604,
    65.555,       630,
   65.5752,       631,
   65.5953,       560,
   65.6155,       622,
   65.6357,       607,
   65.6559,       647,
    65.676,       569,
   65.6962,       612,
   65.7164,       593,
   65.7365,       624,
   65.7567,       604,
   65.7769,       631,
    65.797,       623,
   65.8172,       607,
   65.8374,       614,
   65.8575,       595,
   65.8777,       597,
   65.8979,       612,
    65.918,       595,
   65.9382,       671,
   65.9584,       624,
   65.9786,       592,
   65.9987,       594,
   66.0189,       611,
   66.0391,       632,
   66.0592,       586,
   66.0794,       606,
   66.0996,       603,
   66.1197,       639,
   66.1399,       643,
   66.1601,       558,
   66.1802,       639,
   66.2004,       664,
   66.2206,       631,
   66.2407,       596,
   66.2609,       579,
   66.2811,       614,
   66.3012,       618,
   66.3214,       612,
   66.3416,       609,
   66.3618,       623,
   66.3819,       652,
   66.4021,       637,
   66.4223,       585,
   66.4424,       616,
   66.4626,       604,
   66.4828,       613,
   66.5029,       604,
   66.5231,       614,
   66.5433,       646,
   66.5634,       597,
   66.5836,       638,
   66.6038,       651,
   66.6239,       653,
   66.6441,       665,
   66.6643,       644,
   66.6844,       594,
   66.7046,       644,
   66.7248,       635,
    66.745,       612,
   66.7651,       647,
   66.7853,       622,
   66.8055,       564,
   66.8256,       608,
   66.8458,       664,
    66.866,       583,
   66.8861,       585,
   66.9063,       611,
   66.9265,       664,
   66.9466,       620,
   66.9668,       602,
    66.987,       604,
   67.0071,       636,
   67.0273,       619,
   67.0475,       605,
   67.0677,       593,
   67.0878,       605,
    67.108,       585,
   67.1282,       630,
   67.1483,       608,
   67.1685,       598,
   67.1887,       611,
   67.2088,       605,
    67.229,       650,
   67.2492,       629,
   67.2693,       629,
   67.2895,       649,
   67.3097,       632,
   67.3298,       659,
     67.35,       610,
   67.3702,       633,
   67.3903,       645,
   67.4105,       604,
   67.4307,       603,
   67.4509,       596,
    67.471,       584,
   67.4912,       648,
   67.5114,       602,
   67.5315,       615,
   67.5517,       601,
   67.5719,       589,
    67.592,       625,
   67.6122,       581,
   67.6324,       612,
   67.6525,       633,
   67.6727,       597,
   67.6929,       619,
    67.713,       602,
   67.7332,       621,
   67.7534,       617,
   67.7735,       627,
   67.7937,       559,
   67.8139,       671,
   67.8341,       598,
   67.8542,       601,
   67.8744,       603,
   67.8946,       624,
   67.9147,       592,
   67.9349,       594,
   67.9551,       614,
   67.9752,       623,
   67.9954,       631,
   68.0156,       591,
   68.0357,       605,
   68.0559,       624,
   68.0761,       640,
   68.0962,       599,
   68.1164,       618,
   68.1366,       621,
   68.1568,       600,
   68.1769,       647,
   68.1971,       639,
   68.2173,       637,
   68.2374,       586,
   68.2576,       581,
   68.2778,       583,
   68.2979,       687,
   68.3181,       630,
   68.3383,       578,
   68.3584,       603,
   68.3786,       597,
   68.3988,       634,
   68.4189,       574,
   68.4391,       620,
   68.4593,       614,
   68.4794,       622,
   68.4996,       606,
   68.5198,       608,
     68.54,       606,
   68.5601,       605,
   68.5803,       609,
   68.6005,       641,
   68.6206,       598,
   68.6408,       613,
    68.661,       638,
   68.6811,       614,
   68.7013,       612,
   68.7215,       647,
   68.7416,       599,
   68.7618,       550,
    68.782,       626,
   68.8021,       578,
   68.8223,       616,
   68.8425,       637,
   68.8626,       573,
   68.8828,       640,
    68.903,       576,
   68.9232,       638,
   68.9433,       590,
   68.9635,       604,
   68.9837,       607,
   69.0038,       600,
    69.024,       620,
   69.0442,       600,
   69.0643,       631,
   69.0845,       618,
   69.1047,       599,
   69.1248,       606,
    69.145,       605,
   69.1652,       620,
   69.1853,       644,
   69.2055,       596,
   69.2257,       563,
   69.2459,       621,
    69.266,       573,
   69.2862,       640,
   69.3064,       623,
   69.3265,       615,
   69.3467,       643,
   69.3669,       581,
    69.387,       571,
   69.4072,       622,
   69.4274,       644,
   69.4475,       654,
   69.4677,       644,
   69.4879,       633,
    69.508,       589,
   69.5282,       592,
   69.5484,       640,
   69.5685,       607,
   69.5887,       599,
   69.6089,       601,
   69.6291,       629,
   69.6492,       624,
   69.6694,       639,
   69.6896,       607,
   69.7097,       595,
   69.7299,       612,
   69.7501,       614,
   69.7702,       596,
   69.7904,       602,
   69.8106,       618,
   69.8307,       606,
   69.8509,       605,
   69.8711,       600,
   69.8912,       582,
   69.9114,       608,
   69.9316,       628,
   69.9517,       610,
   69.9719,       546,
   69.9921,       632,
   70.0123,       571,
   70.0324,       583,
   70.0526,       639,
   70.0728,       599,
   70.0929,       618,
   70.1131,       630,
   70.1333,       633,
   70.1534,       651,
   70.1736,       596,
   70.1938,       608,
   70.2139,       594,
   70.2341,       607,
   70.2543,       591,
   70.2744,       580,
   70.2946,       605,
   70.3148,       609,
    70.335,       594,
   70.3551,       614,
   70.3753,       613,
   70.3955,       636,
   70.4156,       589,
   70.4358,       652,
    70.456,       614,
   70.4761,       599,
   70.4963,       587,
   70.5165,       614,
   70.5366,       605,
   70.5568,       598,
    70.577,       601,
   70.5971,       626,
   70.6173,       660,
   70.6375,       608,
   70.6576,       610,
   70.6778,       619,
    70.698,       594,
   70.7182,       578,
   70.7383,       621,
   70.7585,       640,
   70.7787,       630,
   70.7988,       578,
    70.819,       636,
   70.8392,       591,
   70.8593,       623,
   70.8795,       598,
   70.8997,       648,
   70.9198,       611,
     70.94,       590,
   70.9602,       622,
   70.9803,       538,
   71.0005,       575,
   71.0207,       600,
   71.0409,       562,
    71.061,       620,
   71.0812,       603,
   71.1014,       619,
   71.1215,       604,
   71.1417,       603,
   71.1619,       596,
    71.182,       621,
   71.2022,       625,
   71.2224,       629,
   71.2425,       576,
   71.2627,       603,
   71.2829,       572,
    71.303,       618,
   71.3232,       574,
   71.3434,       640,
   71.3635,       629,
   71.3837,       626,
   71.4039,       584,
   71.4241,       559,
   71.4442,       627,
   71.4644,       620,
   71.4846,       599,
   71.5047,       629,
   71.5249,       568,
   71.5451,       631,
   71.5652,       609,
   71.5854,       656,
   71.6056,       588,
   71.6257,       600,
   71.6459,       637,
   71.6661,       650,
   71.6862,       666,
   71.7064,       580,
   71.7266,       644,
   71.7467,       611,
   71.7669,       621,
   71.7871,       610,
   71.8073,       658,
   71.8274,       644,
   71.8476,       636,
   71.8678,       611,
   71.8879,       659,
   71.9081,       636,
   71.9283,       607,
   71.9484,       622,
   71.9686,       586,
   71.9888,       624,
   72.0089,       605,
   72.0291,       621,
   72.0493,       639,
   72.0694,       645,
   72.0896,       681,
   72.1098,       667,
     72.13,       634,
   72.1501,       621,
   72.1703,       637,
   72.1905,       637,
   72.2106,       564,
   72.2308,       621,
    72.251,       617,
   72.2711,       628,
   72.2913,       633,
   72.3115,       665,
   72.3316,       569,
   72.3518,       659,
    72.372,       666,
   72.3921,       617,
   72.4123,       604,
   72.4325,       617,
   72.4526,       625,
   72.4728,       654,
    72.493,       617,
   72.5132,       611,
   72.5333,       640,
   72.5535,       646,
   72.5737,       611,
   72.5938,       619,
    72.614,       636,
   72.6342,       606,
   72.6543,       654,
   72.6745,       590,
   72.6947,       616,
   72.7148,       632,
    72.735,       616,
   72.7552,       616,
   72.7753,       633,
   72.7955,       590,
   72.8157,       623,
   72.8358,       643,
    72.856,       637,
   72.8762,       664,
   72.8964,       620,
   72.9165,       622,
   72.9367,       639,
   72.9569,       606,
    72.977,       662,
   72.9972,       647,
   73.0174,       651,
   73.0375,       685,
   73.0577,       634,
   73.0779,       677,
    73.098,       631,
   73.1182,       657,
   73.1384,       635,
   73.1585,       639,
   73.1787,       654,
   73.1989,       650,
   73.2191,       663,
   73.2392,       665,
   73.2594,       670,
   73.2796,       656,
   73.2997,       650,
   73.3199,       639,
   73.3401,       653,
   73.3602,       608,
   73.3804,       701,
   73.4006,       684,
   73.4207,       720,
   73.4409,       693,
   73.4611,       660,
   73.4812,       699,
   73.5014,       712,
   73.5216,       708,
   73.5417,       718,
   73.5619,       758,
   73.5821,       714,
   73.6023,       687,
   73.6224,       784,
   73.6426,       709,
   73.6628,       776,
   73.6829,       763,
   73.7031,       772,
   73.7233,       770,
   73.7434,       799,
   73.7636,       775,
   73.7838,       806,
   73.8039,       852,
   73.8241,       812,
   73.8443,       855,
   73.8644,       890,
   73.8846,       868,
   73.9048,       963,
   73.9249,       931,
   73.9451,      1015,
   73.9653,      1037,
   73.9855,      1066,
   74.0056,      1122,
   74.0258,      1067,
    74.046,      1069,
   74.0661,      1200,
   74.0863,      1195,
   74.1065,      1234,
   74.1266,      1290,
   74.1468,      1330,
    74.167,      1366,
   74.1871,      1409,
   74.2073,      1425,
   74.2275,      1424,
   74.2476,      1457,
   74.2678,      1445,
    74.288,      1475,
   74.3082,      1418,
   74.3283,      1407,
   74.3485,      1371,
   74.3687,      1333,
   74.3888,      1353,
    74.409,      1361,
   74.4292,      1256,
   74.4493,      1243,
   74.4695,      1273,
   74.4897,      1199,
   74.5098,      1201,
     74.53,      1122,
   74.5502,      1100,
   74.5703,      1150,
   74.5905,      1026,
   74.6107,       987,
   74.6308,      1012,
    74.651,       924,
   74.6712,       976,
   74.6914,       919,
   74.7115,       888,
   74.7317,       873,
   74.7519,       865,
    74.772,       845,
   74.7922,       841,
   74.8124,       766,
   74.8325,       785,
   74.8527,       790,
   74.8729,       762,
    74.893,       736,
   74.9132,       763,
   74.9334,       787,
   74.9535,       706,
   74.9737,       739,
   74.9939,       743,
    75.014,       730,
   75.0342,       697,
   75.0544,       691,
   75.0746,       663,
   75.0947,       704,
   75.1149,       705,
   75.1351,       691,
   75.1552,       703,
   75.1754,       699,
   75.1956,       658,
   75.2157,       659,
   75.2359,       670,
   75.2561,       619,
   75.2762,       688,
   75.2964,       639,
   75.3166,       634,
   75.3367,       665,
   75.3569,       685,
   75.3771,       627,
   75.3973,       615,
   75.4174,       661,
   75.4376,       616,
   75.4578,       667,
   75.4779,       642,
   75.4981,       654,
   75.5183,       646,
   75.5384,       640,
   75.5586,       622,
   75.5788,       658,
   75.5989,       656,
   75.6191,       612,
   75.6393,       664,
   75.6594,       646,
   75.6796,       660,
   75.6998,       642,
   75.7199,       635,
   75.7401,       622,
   75.7603,       633,
   75.7805,       630,
   75.8006,       610,
   75.8208,       634,
    75.841,       656,
   75.8611,       627,
   75.8813,       604,
   75.9015,       618,
   75.9216,       634,
   75.9418,       637,
    75.962,       636,
   75.9821,       626,
   76.0023,       610,
   76.0225,       613,
   76.0426,       652,
   76.0628,       577,
    76.083,       606,
   76.1032,       719,
   76.1233,       629,
   76.1435,       599,
   76.1637,       643,
   76.1838,       605,
    76.204,       618,
   76.2242,       633,
   76.2443,       638,
   76.2645,       662,
   76.2847,       634,
   76.3048,       624,
    76.325,       647,
   76.3452,       630,
   76.3653,       667,
   76.3855,       615,
   76.4057,       640,
   76.4258,       606,
    76.446,       621,
   76.4662,       606,
   76.4864,       649,
   76.5065,       627,
   76.5267,       636,
   76.5469,       648,
    76.567,       639,
   76.5872,       607,
   76.6074,       594,
   76.6275,       636,
   76.6477,       594,
   76.6679,       601,
    76.688,       637,
   76.7082,       591,
   76.7284,       590,
   76.7485,       629,
   76.7687,       611,
   76.7889,       598,
    76.809,       649,
   76.8292,       636,
   76.8494,       611,
   76.8696,       606,
   76.8897,       618,
   76.9099,       623,
   76.9301,       647,
   76.9502,       571,
   76.9704,       604,
   76.9906,       610,
   77.0107,       612,
   77.0309,       614,
   77.0511,       620,
   77.0712,       613,
   77.0914,       615,
   77.1116,       611,
   77.1317,       628,
   77.1519,       568,
   77.1721,       607,
   77.1923,       606,
   77.2124,       619,
   77.2326,       615,
   77.2528,       605,
   77.2729,       627,
   77.2931,       630,
   77.3133,       609,
   77.3334,       624,
   77.3536,       619,
   77.3738,       639,
   77.3939,       609,
   77.4141,       574,
   77.4343,       635,
   77.4544,       615,
   77.4746,       660,
   77.4948,       602,
   77.5149,       585,
   77.5351,       631,
   77.5553,       645,
   77.5755,       592,
   77.5956,       605,
   77.6158,       626,
    77.636,       594,
   77.6561,       645,
   77.6763,       622,
   77.6965,       603,
   77.7166,       597,
   77.7368,       631,
    77.757,       604,
   77.7771,       598,
   77.7973,       669,
   77.8175,       642,
   77.8376,       631,
   77.8578,       609,
    77.878,       614,
   77.8981,       623,
   77.9183,       686,
   77.9385,       648,
   77.9587,       638,
   77.9788,       584,
    77.999,       604,
