;RAW4.00
[RawHeader]
Date=11/26/2025
EstimatedTotalTime=426.6
FurtherDQLReading=0
HardwareIndicator=65519
MeasuredTotalTime=4.29299
MeasurementFlag=1
NumberOfMeasuredRanges=1
NumberOfRanges=1
Time=11:31:50

[VarInfo]
Type=USER
Flags=0
Value=Lab Manager

[VarInfo]
Type=SAMPLEID
Flags=0
Value=Commander Sample ID

[VarInfo]
Type=COMMENT
Flags=0
Value=

[VarInfo]
Type=UTF
Flags=0
Value=

[VarInfo]
Type=CREATOR
Flags=0
Value=V5Converter

[VarInfo]
Type=CREATOR_VERSION
Flags=0
Value=4.4.16.0

[HardwareConfiguration]
AbsorptionFactor=9999
ActivateAbsorber=0
Alpha1=1.5406
Alpha2=1.54439
AlphaAverage=1.54184
AlphaRatio=0.5
Analyzer=0
Anode=Cu
AntiScatteringSlit=9999
BeamOpticsFlags=0
Beta=1.39222
BetaRelativeIntensity=0
DeactivateAbsorber=0
DetectorSlit=9999
DivergenceSlit=9999
GoniometerControl=0
GoniometerDiameter=282
GoniometerModel=256
GoniometerStage=7
Monochromator=0
NearSampleSlit=9999
PrimarySollerSlit=9999
SampleChanger=0
SecondSollerSlit=9999
SynchronousAxis=0
ThinFilmAttachment=9999
WaveUnit=A

[RangeHeader]
ActuallyUsedLambda=1.54184
AdditionalDetectorMask=257
DataRecordLength=4
DelayTime=0
DisplayPlaneNumber=0
EstimatedScanTime=427
ExtraParametersMask=0
GeneratorCurrent=10
GeneratorVoltage=30
Increment=0.0201685
Increment3=0
NumberOfCompletedData=1885
NumberOfCounts=1
NumberOfDetectors=0
NumberOfDrives=3
NumberOfEncoderDrives=0
NumberOfMeasuredData=1885
NumberOfVaryingParameters=0
RangeStartTime=0
RotationSpeed=0
ScanMode=1
ScanType=Locked Coupled
SimulatedMeasConditions=0
SlitChangerIn=0
SmootingWidth=0
Start=40.0015
Steps=1885
SynchronousRotation=0
Time=33

[VarInfo]
Type=PSD_DISCRIM
Flags=0
Value=0.11;0.5

[VarInfo]
Type=OPTICS_V5
Flags=0
Value=H4sIAAAAAAAEAO1d63KjOhJ+Fda/zqmtBIPtXKaITzm2J+OaOHbFTnKmtrZcBORYZzC4AOey//d99hl2X2x1QViIS8C3JBN+TCaodWm6+2vUUkfS/nieW9IjcD3o2GcV5bBakYBtOCa0H84qS396oBxV/mhqF44NnTnwgdt25gvHBrbf0X1dQq1t78uzB88qM99ffJHlp6enw6faoeM+yGq1qsh/9i9HxgzM9QNoe75uG6AStjJfb1WRbqEH7y1wpc/BWWXFR0joAM9w4cInL/Bj4UHLsSW+3oXrLBc9NBZ6t3Pgojcb3P8FDH+o+7OzitwBj9AAMt+CrxUfl1Lblu55QRehTORzoM8XqLDt2L4ObeBy/coBc6yHluEvdYtxoR6o1ePT02O5h8TkLue4tzhrTW2EZGjqqBswQr3oFvyXjl+9OdUtD2hyGln7c259hcAyrwHqHhq4EDFpA/KbJ8lNjfKD1ToCFipvdm00JDA1OUbR6Btwou9Ab2HpL824AjQ5tXK8m+bF4OrHhPzodEft64TGrBVWDOsoPhpP1bBWhrxWvISy1r0hIUP+4r8skMLHrm78xG8sGODQhXPdfSHkZBMMakgD9GxISBvSeHkPOIFIQeOidilHx44baRI9r5mSRmyEDSxUYBJZ3blu/xy4JnCvAfYzAL0wsdX3b8s5NVnMwIfj6+8T9KPV/l7IxHm5Jhp5z0OvBh9BE+kGCS98DAk920dCZMIVSikeHA9SJulgmhwp1bAq2ZMXfZT4B2LSAxc+QFu3ogSlwl6OWi7Ssb/0moPwnSLFGmsYPPedJdIj0qJQrgWE0MJ5JCOdEXICmjFtjmnJUA7J0tRxpRHQLUBtYA3AytxYcejGiMm4JZa46kmmLG0LrhEWBa3xcus++8A2MZDfDYZpCWdMkQKtj5nwHfcltGVFk+OFGseMJxH2qHoYWND7cnJosmJN5ku1uCnh1+H65qyTKx3Y545jAR1NEG5s6BPpdiDSG56bXcI59IlYwiKvWdVk7knrgKm+tPxb3VoCboigVyQ96CPXTshnFewlKri/oQta5l9LD8GnYEuZYx67mbHTJoqe6ZblPK0cjVCOarZnwPgJzFUVVqC1ESPOHKsWvx33pNH5Zl7erhEyxkg2xVq1lr7TdoHug6HrLIDrvzAWEyiR9/eIRfdMhLKr5fweuE21rslCEdaQRS08UPF//xMyUSUc9B0TNG8Quqbos4xMnTwz90Y+PzEHluy7tuWt5HgP/ND5vNXOHBXjLvaN2aNbYuh5A79Evm3IJvErCL6JJ23LP418rD3OPSHRTOHDEjnla/gw85sIdabECnU0BoKwUKWYS+vrz5fAfvBnTbXRwKJhj2nOjrJISkNktZevObqMVm/q5DL4SnFwGS02cm5pFninPwKqkpa1mOmKYIUieVuWOJh2nCVqyWzxf//ehzWm2Nxw9uJBQ7dIeQJnTA/KYaNePXrNFtfo7ca2MPfItOjcf/WMZelYS+paugfVBtErK9H60Ibz5bx5oBwenx4fndaUWv3kSK0pjePu32vVE4S4oAZGIvklvWZQ4W0Rs4b0UpC0Rk/7QJiajTD10yOsXjvdJsRYdyXGNhLfFkDGuto1yh6Bqz+IoV6M/ulxppzUt4kz1l2Js43EtwWcsa52jLNz4OupIMPET46w2qmqqttD2Kq7EmEbiW9jhK262jHCrvGaRirECHVXGHuvCFutth02NsJWrKMSVWsKbh08xTrZCZK+OsbSG7gQ2D5ZHRSgJJK3tspG1g4H057tH9XfH6CibEVXr/OjKbkXhfRCBYDfqOeDOWLs0nmABl3VvJn0rm5bl73OpP2tN9TkFYkJfAye/WbPftQtiMQzg4uVjCJaIvW07+CFjI1lEf6uyTEWsnm67F2lsnIJbSARW0kbWtlk6OEgY+yhA20/e3B1k8GZLoaD0auqCHeKD6S58wgk35HmwJjpNrYKCTmTxd/SeKxl8/ienF2WXefzdFk9bOTm6N5Lz546UqiqhAVciZbr3FOQY3BWIVUkVBrdJr+ZtC6H31rRcrGRhEeyyEjkXXKxo0bYURPZUVPYUbPYUQuzEywL8PxEyoQBQloib5PW7UUWe0HrokySmCrg8D78PeybkkWGzrvjVjIvuH4+FiIbUQEDqBXeyxN46LJSkY3uZbffvRqnSMV2TCAFbaXVSDlkQmfBvNq4EkHsASVZZdetcW+QpTTSOp+8YlOLgL9pYnk4ToQicvl10J4MrpMZJONJkeZyfMe6Ed+xvgA2skTfcYU8TFacvPmcsQFLZ8dr7r82tXQiP3O7dSw/voYXlO4q5vl5u6WEjcypLxqFfRNqVSHyCL4FKaFHctihVBMCjFp1f7FErbF+MBEXRsEvZLo55TW19tJ1sT+LmlpQuitTm7f2YWpolHD6sQ1TaySFsh/E0uKy2LulDZ0nkgHOmxQp25WV3aUEnW+xcHMnRJr5lluqhymm+EkWW+4491hde7Ul3ssWbV9+7YtfJA0UTQyNGXBfyVbbPA8ud74bklUw60j9YgWfilQ/I4dzraYmBmuZ2QhiKJW9qxqLdLI3h6IxR/YytzAXT1vD42MIIXVJnC4nR8cylyaJ7OZRhxZeJcCPHu2eWH2ZQFkmUJYJlGUCZZlA+fE2xcsEyvezJV4mUP6aCCsTKN8TxsoEyl8VZ2UC5XvCWZlA+ashrEygfE8IKxMoywTKMoGyTKAsEyjLBMoygbJMoCwTKMsEyjKBskygLBMoywTKMoGyTKAsEyjLBMoygbJMoHzr+KNMoCwTKD9tAiXLkUS/iumT7KzT+Cmg4tm7GScqd+cL/4UkG4arGcVOT+72h4PRhP4scnoyGTg0xcTzk2U+BzLzcGMl7XBjde+HGw8WbefceR5MR45lATfhiGNKyDjkmKsg/WbotmTQQ8ElNJZEifQE7N/XgX9k+LhXSSBnuYaE6hunwkb7FPSZfOxxRGTIPPKL8PePe2KymphYK0bAR+scevtxXAin6Q2diJrmRGpv50S+wmdgEkNlcw/RmVjQz3IliCz1U2CAaRv4kdXICV5EJGb6ELHy5h6E61FQZYr/YA2o98gntQ/sOmq5XMfxeudlE7OmVzSsTJpYMhZe0hcRy1SR/jGf/zPDjH/DR/7fA2QfErQ9hAVgol98R9I5hWWaMq5mhBds4KeJUp0oaQYcIb5mwIVtN52ZmPP5qH/5US30lx930PRnYm4HLtvZktP8/WxBxzgL44DNsuvjPeVdZqh+7nWGuODWWWeI97KTtI5vABumgB1a+LnBszXslNBZz+i3gpzt3wSirjOzGenzhQXuZgBYY/QC/KUgIkkjH65UJ0ChmfamMj+F+lCxGJtFbxiJ1dIisfpGkRjhMR6HvT9h3thLD5hkeHHgLInKwm1g17oJl16CldWVYB+fXrg3mE494KdZfesZevz3Iay2B1ceYybnbh1ywVU1LSlVPTypn6qNRkNN8LvHjcOTRv24dqQqvK8VhNAM7mETbitc+w7DEUCRgJl9i2FYh7v9roNCXwNnMmzhLkORh4SYKLFGsfsMwz42ifVFRj70nYaF9FrM/4zwzYaj4jcbRuW787sNw+F2cbvhyRss3uHlOks3wMyxzMQtgMsX+xm8pBxzcfnj6s/ujy654bCjSsOZ7olX4OYEsRyOEwezQMpa3mDWKOO8X3k4Wj2jProvYAvX6KYzLmrzl7v28CTPUlxNiU9Yi8wL0ecUu0XdWrmWfniNJk2pxn6HJHazGl4xZ9PpjyfkXwFHw4ba6R6gstmscZebgP09bgIKCIswkLYN2N/zNmAmj6JSs3YC+59rJ1Cp53Ii1c+wFVhGSkUjpbRAqXF4dHrSUJRqPWmBqqEcHldP68dqfQeB0sontAHGieA9hcKI4+SmzLSadMAw70kjnLfkkW8dVkPLMIDnOS4E3hoRE+Mi7j2jlLwRUvyl1/ekrIcPHRqtqcpiLudicNWekB9FHA7lZ+eh0Ri4qHQnkdHp3mdFwxkkShPAfO0EGXBRYgTUqKlErdE1Wb0CGJXZGHSdNqGDKCsJ1TJnP6vqMuJUZpxuDuAUxgVFpsREEgUYMFu+rxszPNBZ5WDPRwluc5pzmitr4SQ+y+l5TBQhKMMCjfMcZLfIWj48ALPjYkzSv8ZE3eHvWs9sIu2S3oNHTCEVRwtgwGnwt6KsUpyC4BLvvcgEK46DYs5u+K03mpAfRZxdFKHbnGBVi0yvQisOP5lEYfRDEPwf22IqXU7pckqXI7qcECvsd+8VLsZPznhGTjB6jZVIzZz8ZA+dc9yig6ZEJvFifFQxXo8YAd9H0PIkfi6GHAXNPKxILbzB7vVR6AbplI5NtLGOuVT/5i2e1Rn4EFu+VFtBkewhB6uqmiyUa3yqI/WAkWUTj/6JxSqYYK6D6Pv/u9RXv2COAAA=

[PSD]
ActualTwoTheta=9999
FirstUsedChannel=0
FixedPSD=0
PSDOpening=4.99171
PSDType=5

[Drive]
DriveFlags=1
DriveName=2Theta
DriveNumber=2
DriveOffset=0
OffsetIndex=0
OscillationAmplitude=0
OscillationSpeed=0
StartPosition=40.0015

[Drive]
DriveFlags=1
DriveName=Theta
DriveNumber=1
DriveOffset=0
OffsetIndex=0
OscillationAmplitude=0
OscillationSpeed=0
StartPosition=20.0007

[Drive]
DriveFlags=1
DriveName=Phi
DriveNumber=3
DriveOffset=0
OffsetIndex=0
OscillationAmplitude=0
OscillationSpeed=0
StartPosition=0

[Data]
     Angle,       PSD,
   40.0015,       602,
   40.0217,       639,
   40.0418,       641,
    40.062,       607,
   40.0822,       630,
   40.1023,       615,
   40.1225,       563,
   40.1427,       605,
   40.1628,       647,
    40.183,       631,
   40.2032,       605,
   40.2233,       647,
   40.2435,       623,
   40.2637,       630,
   40.2838,       623,
    40.304,       637,
   40.3242,       657,
   40.3444,       636,
   40.3645,       639,
   40.3847,       697,
   40.4049,       567,
    40.425,       617,
   40.4452,       617,
   40.4654,       645,
   40.4855,       618,
   40.5057,       617,
   40.5259,       596,
    40.546,       633,
   40.5662,       619,
   40.5864,       651,
   40.6065,       641,
   40.6267,       616,
   40.6469,       636,
   40.6671,       607,
   40.6872,       671,
   40.7074,       623,
   40.7276,       657,
   40.7477,       624,
   40.7679,       629,
   40.7881,       598,
   40.8082,       607,
   40.8284,       614,
   40.8486,       614,
   40.8687,       640,
   40.8889,       691,
   40.9091,       635,
   40.9292,       655,
   40.9494,       632,
   40.9696,       633,
   40.9897,       611,
   41.0099,       627,
   41.0301,       646,
   41.0503,       696,
   41.0704,       623,
   41.0906,       617,
   41.1108,       596,
   41.1309,       646,
   41.1511,       682,
   41.1713,       611,
   41.1914,       659,
   41.2116,       666,
   41.2318,       656,
   41.2519,       634,
   41.2721,       626,
   41.2923,       664,
   41.3124,       615,
   41.3326,       644,
   41.3528,       619,
   41.3729,       658,
   41.3931,       653,
   41.4133,       608,
   41.4335,       605,
   41.4536,       654,
   41.4738,       662,
    41.494,       629,
   41.5141,       612,
   41.5343,       622,
   41.5545,       598,
   41.5746,       595,
   41.5948,       651,
    41.615,       638,
   41.6351,       648,
   41.6553,       615,
   41.6755,       645,
   41.6956,       633,
   41.7158,       657,
    41.736,       689,
   41.7562,       713,
   41.7763,       735,
   41.7965,       766,
   41.8167,       755,
   41.8368,       764,
    41.857,       755,
   41.8772,       730,
   41.8973,       772,
   41.9175,       754,
   41.9377,       749,
   41.9578,       767,
    41.978,       766,
   41.9982,       768,
   42.0183,       794,
   42.0385,       742,
   42.0587,       740,
   42.0788,       786,
    42.099,       752,
   42.1192,       817,
   42.1394,       786,
   42.1595,       764,
   42.1797,       686,
   42.1999,       725,
     42.22,       768,
   42.2402,       795,
   42.2604,       747,
   42.2805,       783,
   42.3007,       805,
   42.3209,       774,
    42.341,       803,
   42.3612,       742,
   42.3814,       862,
   42.4015,       798,
   42.4217,       738,
   42.4419,       807,
    42.462,       847,
   42.4822,       803,
   42.5024,       818,
   42.5226,       838,
   42.5427,       788,
   42.5629,       708,
   42.5831,       767,
   42.6032,       813,
   42.6234,       787,
   42.6436,       785,
   42.6637,       833,
   42.6839,       896,
   42.7041,       833,
   42.7242,       838,
   42.7444,       802,
   42.7646,       828,
   42.7847,       911,
   42.8049,       851,
   42.8251,       948,
   42.8453,      1009,
   42.8654,      1033,
   42.8856,      1050,
   42.9058,      1143,
   42.9259,      1187,
   42.9461,      1180,
   42.9663,      1203,
   42.9864,      1342,
   43.0066,      1354,
   43.0268,      1336,
   43.0469,      1465,
   43.0671,      1693,
   43.0873,      1867,
   43.1074,      2025,
   43.1276,      2186,
   43.1478,      2332,
   43.1679,      2415,
   43.1881,      2861,
   43.2083,      3766,
   43.2285,      5752,
   43.2486,     10599,
   43.2688,     25513,
    43.289,     52063,
   43.3091,     63622,
   43.3293,     39683,
   43.3495,     17583,
   43.3696,     13220,
   43.3898,     20518,
     43.41,     32117,
   43.4301,     30060,
   43.4503,     15472,
   43.4705,      6825,
   43.4906,      4024,
   43.5108,      2958,
    43.531,      2379,
   43.5511,      2086,
   43.5713,      1946,
   43.5915,      1714,
   43.6117,      1611,
   43.6318,      1451,
    43.652,      1406,
   43.6722,      1253,
   43.6923,      1239,
   43.7125,      1166,
   43.7327,      1104,
   43.7528,       982,
    43.773,      1022,
   43.7932,       922,
   43.8133,       928,
   43.8335,       893,
   43.8537,       906,
   43.8738,       876,
    43.894,       906,
   43.9142,       820,
   43.9344,       820,
   43.9545,       861,
   43.9747,       802,
   43.9949,       828,
    44.015,       809,
   44.0352,       832,
   44.0554,       817,
   44.0755,       825,
   44.0957,       762,
   44.1159,       843,
    44.136,       768,
   44.1562,       762,
   44.1764,       824,
   44.1965,       759,
   44.2167,       786,
   44.2369,       742,
    44.257,       736,
   44.2772,       770,
   44.2974,       752,
   44.3176,       792,
   44.3377,       743,
   44.3579,       739,
   44.3781,       775,
   44.3982,       788,
   44.4184,       714,
   44.4386,       741,
   44.4587,       691,
   44.4789,       762,
   44.4991,       723,
   44.5192,       759,
   44.5394,       761,
   44.5596,       738,
   44.5797,       751,
   44.5999,       744,
   44.6201,       715,
   44.6402,       766,
   44.6604,       711,
   44.6806,       733,
   44.7008,       723,
   44.7209,       710,
   44.7411,       712,
   44.7613,       762,
   44.7814,       710,
   44.8016,       761,
   44.8218,       734,
   44.8419,       749,
   44.8621,       728,
   44.8823,       721,
   44.9024,       693,
   44.9226,       757,
   44.9428,       707,
   44.9629,       703,
   44.9831,       752,
   45.0033,       731,
   45.0235,       684,
   45.0436,       700,
   45.0638,       707,
    45.084,       698,
   45.1041,       723,
   45.1243,       710,
   45.1445,       711,
   45.1646,       726,
   45.1848,       702,
    45.205,       766,
   45.2251,       769,
   45.2453,       711,
   45.2655,       793,
   45.2856,       733,
   45.3058,       767,
    45.326,       778,
   45.3461,       693,
   45.3663,       717,
   45.3865,       681,
   45.4067,       736,
   45.4268,       703,
    45.447,       675,
   45.4672,       730,
   45.4873,       703,
   45.5075,       722,
   45.5277,       760,
   45.5478,       666,
    45.568,       704,
   45.5882,       701,
   45.6083,       705,
   45.6285,       707,
   45.6487,       705,
   45.6688,       718,
    45.689,       704,
   45.7092,       655,
   45.7294,       681,
   45.7495,       699,
   45.7697,       682,
   45.7899,       693,
     45.81,       684,
   45.8302,       691,
   45.8504,       718,
   45.8705,       693,
   45.8907,       705,
   45.9109,       684,
    45.931,       686,
   45.9512,       733,
   45.9714,       702,
   45.9915,       723,
   46.0117,       690,
   46.0319,       672,
    46.052,       692,
   46.0722,       695,
   46.0924,       639,
   46.1126,       691,
   46.1327,       690,
   46.1529,       663,
   46.1731,       719,
   46.1932,       712,
   46.2134,       676,
   46.2336,       661,
   46.2537,       691,
   46.2739,       684,
   46.2941,       651,
   46.3142,       690,
   46.3344,       658,
   46.3546,       646,
   46.3747,       620,
   46.3949,       647,
   46.4151,       664,
   46.4352,       669,
   46.4554,       693,
   46.4756,       711,
   46.4958,       686,
   46.5159,       745,
   46.5361,       696,
   46.5563,       681,
   46.5764,       681,
   46.5966,       737,
   46.6168,       741,
   46.6369,       692,
   46.6571,       676,
   46.6773,       698,
   46.6974,       706,
   46.7176,       685,
   46.7378,       732,
   46.7579,       634,
   46.7781,       695,
   46.7983,       689,
   46.8185,       682,
   46.8386,       661,
   46.8588,       689,
    46.879,       651,
   46.8991,       684,
   46.9193,       679,
   46.9395,       685,
   46.9596,       685,
   46.9798,       678,
        47,       708,
   47.0201,       679,
   47.0403,       729,
   47.0605,       735,
   47.0806,       749,
   47.1008,       688,
    47.121,       635,
   47.1411,       704,
   47.1613,       688,
   47.1815,       741,
   47.2017,       651,
   47.2218,       650,
    47.242,       682,
   47.2622,       669,
   47.2823,       685,
   47.3025,       673,
   47.3227,       671,
   47.3428,       731,
    47.363,       666,
   47.3832,       694,
   47.4033,       674,
   47.4235,       691,
   47.4437,       696,
   47.4638,       654,
    47.484,       662,
   47.5042,       636,
   47.5243,       636,
   47.5445,       654,
   47.5647,       695,
   47.5849,       666,
    47.605,       688,
   47.6252,       686,
   47.6454,       709,
   47.6655,       668,
   47.6857,       685,
   47.7059,       653,
    47.726,       656,
   47.7462,       699,
   47.7664,       655,
   47.7865,       657,
   47.8067,       635,
   47.8269,       668,
    47.847,       673,
   47.8672,       653,
   47.8874,       673,
   47.9076,       716,
   47.9277,       678,
   47.9479,       685,
   47.9681,       649,
   47.9882,       659,
   48.0084,       649,
   48.0286,       652,
   48.0487,       662,
   48.0689,       618,
   48.0891,       676,
   48.1092,       629,
   48.1294,       701,
   48.1496,       640,
   48.1697,       682,
   48.1899,       667,
   48.2101,       611,
   48.2302,       679,
   48.2504,       687,
   48.2706,       689,
   48.2908,       658,
   48.3109,       672,
   48.3311,       690,
   48.3513,       637,
   48.3714,       697,
   48.3916,       638,
   48.4118,       662,
   48.4319,       668,
   48.4521,       686,
   48.4723,       619,
   48.4924,       688,
   48.5126,       640,
   48.5328,       671,
   48.5529,       674,
   48.5731,       651,
   48.5933,       708,
   48.6134,       740,
   48.6336,       707,
   48.6538,       662,
    48.674,       672,
   48.6941,       680,
   48.7143,       663,
   48.7345,       658,
   48.7546,       643,
   48.7748,       646,
    48.795,       694,
   48.8151,       656,
   48.8353,       698,
   48.8555,       669,
   48.8756,       704,
   48.8958,       684,
    48.916,       678,
   48.9361,       669,
   48.9563,       681,
   48.9765,       685,
   48.9967,       712,
   49.0168,       674,
    49.037,       691,
   49.0572,       685,
   49.0773,       673,
   49.0975,       703,
   49.1177,       721,
   49.1378,       697,
    49.158,       718,
   49.1782,       696,
   49.1983,       688,
   49.2185,       687,
   49.2387,       705,
   49.2588,       673,
    49.279,       713,
   49.2992,       698,
   49.3193,       686,
   49.3395,       671,
   49.3597,       699,
   49.3799,       691,
      49.4,       701,
   49.4202,       674,
   49.4404,       678,
   49.4605,       651,
   49.4807,       709,
   49.5009,       644,
    49.521,       695,
   49.5412,       699,
   49.5614,       714,
   49.5815,       684,
   49.6017,       711,
   49.6219,       669,
    49.642,       652,
   49.6622,       750,
   49.6824,       728,
   49.7025,       745,
   49.7227,       688,
   49.7429,       699,
   49.7631,       711,
   49.7832,       684,
   49.8034,       713,
   49.8236,       702,
   49.8437,       736,
   49.8639,       718,
   49.8841,       703,
   49.9042,       738,
   49.9244,       776,
   49.9446,       733,
   49.9647,       741,
   49.9849,       765,
   50.0051,       772,
   50.0252,       824,
   50.0454,       847,
   50.0656,       827,
   50.0858,       865,
   50.1059,       871,
   50.1261,       932,
   50.1463,       966,
   50.1664,       952,
   50.1866,      1107,
   50.2068,      1070,
   50.2269,      1135,
   50.2471,      1129,
   50.2673,      1188,
   50.2874,      1301,
   50.3076,      1460,
   50.3278,      1847,
   50.3479,      2458,
   50.3681,      3493,
   50.3883,      5636,
   50.4084,      9310,
   50.4286,     12836,
   50.4488,     12448,
    50.469,      8929,
   50.4891,      5800,
   50.5093,      4626,
   50.5295,      4941,
   50.5496,      6463,
   50.5698,      7333,
     50.59,      6430,
   50.6101,      4364,
   50.6303,      2749,
   50.6505,      1977,
   50.6706,      1478,
   50.6908,      1285,
    50.711,      1148,
   50.7311,      1089,
   50.7513,      1074,
   50.7715,       948,
   50.7917,       924,
   50.8118,       857,
    50.832,       814,
   50.8522,       799,
   50.8723,       801,
   50.8925,       765,
   50.9127,       758,
   50.9328,       768,
    50.953,       781,
   50.9732,       740,
   50.9933,       789,
   51.0135,       714,
   51.0337,       756,
   51.0538,       739,
    51.074,       756,
   51.0942,       703,
   51.1143,       722,
   51.1345,       697,
   51.1547,       672,
   51.1749,       696,
    51.195,       724,
   51.2152,       682,
   51.2354,       666,
   51.2555,       605,
   51.2757,       671,
   51.2959,       713,
    51.316,       682,
   51.3362,       643,
   51.3564,       725,
   51.3765,       703,
   51.3967,       666,
   51.4169,       676,
    51.437,       664,
   51.4572,       656,
   51.4774,       649,
   51.4975,       661,
   51.5177,       658,
   51.5379,       642,
   51.5581,       666,
   51.5782,       635,
   51.5984,       682,
   51.6186,       664,
   51.6387,       656,
   51.6589,       693,
   51.6791,       672,
   51.6992,       717,
   51.7194,       643,
   51.7396,       656,
   51.7597,       659,
   51.7799,       678,
   51.8001,       673,
   51.8202,       702,
   51.8404,       618,
   51.8606,       655,
   51.8808,       674,
   51.9009,       625,
   51.9211,       654,
   51.9413,       672,
   51.9614,       658,
   51.9816,       680,
   52.0018,       627,
   52.0219,       688,
   52.0421,       654,
   52.0623,       698,
   52.0824,       639,
   52.1026,       671,
   52.1228,       644,
   52.1429,       664,
   52.1631,       650,
   52.1833,       602,
   52.2034,       650,
   52.2236,       672,
   52.2438,       621,
    52.264,       632,
   52.2841,       655,
   52.3043,       638,
   52.3245,       642,
   52.3446,       642,
   52.3648,       641,
    52.385,       646,
   52.4051,       641,
   52.4253,       652,
   52.4455,       668,
   52.4656,       643,
   52.4858,       663,
    52.506,       640,
   52.5261,       629,
   52.5463,       662,
   52.5665,       626,
   52.5866,       656,
   52.6068,       665,
    52.627,       634,
   52.6472,       627,
   52.6673,       660,
   52.6875,       604,
   52.7077,       699,
   52.7278,       637,
    52.748,       677,
   52.7682,       657,
   52.7883,       649,
   52.8085,       672,
   52.8287,       610,
   52.8488,       636,
    52.869,       684,
   52.8892,       658,
   52.9093,       630,
   52.9295,       623,
   52.9497,       672,
   52.9699,       682,
     52.99,       652,
   53.0102,       671,
   53.0304,       697,
   53.0505,       630,
   53.0707,       647,
   53.0909,       630,
    53.111,       638,
   53.1312,       629,
   53.1514,       678,
   53.1715,       636,
   53.1917,       601,
   53.2119,       658,
    53.232,       629,
   53.2522,       689,
   53.2724,       657,
   53.2925,       632,
   53.3127,       623,
   53.3329,       622,
   53.3531,       621,
   53.3732,       647,
   53.3934,       653,
   53.4136,       677,
   53.4337,       614,
   53.4539,       669,
   53.4741,       651,
   53.4942,       656,
   53.5144,       620,
   53.5346,       589,
   53.5547,       582,
   53.5749,       662,
   53.5951,       708,
   53.6152,       617,
   53.6354,       637,
   53.6556,       668,
   53.6757,       655,
   53.6959,       608,
   53.7161,       618,
   53.7363,       655,
   53.7564,       667,
   53.7766,       645,
   53.7968,       620,
   53.8169,       647,
   53.8371,       654,
   53.8573,       615,
   53.8774,       680,
   53.8976,       610,
   53.9178,       647,
   53.9379,       640,
   53.9581,       647,
   53.9783,       622,
   53.9984,       619,
   54.0186,       664,
   54.0388,       610,
    54.059,       578,
   54.0791,       611,
   54.0993,       630,
   54.1195,       638,
   54.1396,       600,
   54.1598,       595,
     54.18,       650,
   54.2001,       614,
   54.2203,       629,
   54.2405,       631,
   54.2606,       649,
   54.2808,       613,
    54.301,       642,
   54.3211,       683,
   54.3413,       618,
   54.3615,       635,
   54.3816,       672,
   54.4018,       611,
    54.422,       653,
   54.4422,       650,
   54.4623,       655,
   54.4825,       575,
   54.5027,       621,
   54.5228,       632,
    54.543,       653,
   54.5632,       612,
   54.5833,       624,
   54.6035,       584,
   54.6237,       652,
   54.6438,       635,
    54.664,       625,
   54.6842,       622,
   54.7043,       610,
   54.7245,       668,
   54.7447,       636,
   54.7648,       676,
    54.785,       669,
   54.8052,       603,
   54.8254,       610,
   54.8455,       624,
   54.8657,       602,
   54.8859,       568,
    54.906,       600,
   54.9262,       628,
   54.9464,       644,
   54.9665,       654,
   54.9867,       661,
   55.0069,       664,
    55.027,       638,
   55.0472,       601,
   55.0674,       634,
   55.0875,       570,
   55.1077,       653,
   55.1279,       663,
   55.1481,       625,
   55.1682,       604,
   55.1884,       670,
   55.2086,       659,
   55.2287,       639,
   55.2489,       642,
   55.2691,       619,
   55.2892,       639,
   55.3094,       609,
   55.3296,       608,
   55.3497,       620,
   55.3699,       640,
   55.3901,       633,
   55.4102,       655,
   55.4304,       653,
   55.4506,       644,
   55.4707,       634,
   55.4909,       633,
   55.5111,       617,
   55.5313,       604,
   55.5514,       612,
   55.5716,       649,
   55.5918,       622,
   55.6119,       636,
   55.6321,       658,
   55.6523,       656,
   55.6724,       659,
   55.6926,       613,
   55.7128,       653,
   55.7329,       632,
   55.7531,       635,
   55.7733,       570,
   55.7934,       671,
   55.8136,       627,
   55.8338,       627,
    55.854,       629,
   55.8741,       624,
   55.8943,       620,
   55.9145,       619,
   55.9346,       649,
   55.9548,       607,
    55.975,       605,
   55.9951,       656,
   56.0153,       608,
   56.0355,       605,
   56.0556,       593,
   56.0758,       629,
    56.096,       586,
   56.1161,       622,
   56.1363,       600,
   56.1565,       586,
   56.1766,       616,
   56.1968,       614,
    56.217,       606,
   56.2372,       622,
   56.2573,       612,
   56.2775,       591,
   56.2977,       660,
   56.3178,       635,
    56.338,       671,
   56.3582,       628,
   56.3783,       615,
   56.3985,       582,
   56.4187,       586,
   56.4388,       596,
    56.459,       621,
   56.4792,       633,
   56.4993,       622,
   56.5195,       627,
   56.5397,       608,
   56.5598,       609,
     56.58,       632,
   56.6002,       636,
   56.6204,       606,
   56.6405,       629,
   56.6607,       616,
   56.6809,       668,
    56.701,       600,
   56.7212,       645,
   56.7414,       604,
   56.7615,       647,
   56.7817,       580,
   56.8019,       667,
    56.822,       601,
   56.8422,       610,
   56.8624,       632,
   56.8825,       630,
   56.9027,       594,
   56.9229,       620,
   56.9431,       579,
   56.9632,       624,
   56.9834,       617,
   57.0036,       620,
   57.0237,       621,
   57.0439,       581,
   57.0641,       621,
   57.0842,       602,
   57.1044,       610,
   57.1246,       630,
   57.1447,       657,
   57.1649,       580,
   57.1851,       601,
   57.2052,       639,
   57.2254,       593,
   57.2456,       597,
   57.2657,       655,
   57.2859,       627,
   57.3061,       613,
   57.3263,       621,
   57.3464,       617,
   57.3666,       614,
   57.3868,       635,
   57.4069,       627,
   57.4271,       603,
   57.4473,       627,
   57.4674,       605,
   57.4876,       588,
   57.5078,       614,
   57.5279,       599,
   57.5481,       651,
   57.5683,       606,
   57.5884,       604,
   57.6086,       583,
   57.6288,       608,
   57.6489,       586,
   57.6691,       628,
   57.6893,       618,
   57.7095,       562,
   57.7296,       619,
   57.7498,       661,
     57.77,       648,
   57.7901,       592,
   57.8103,       639,
   57.8305,       636,
   57.8506,       625,
   57.8708,       626,
    57.891,       620,
   57.9111,       607,
   57.9313,       612,
   57.9515,       612,
   57.9716,       616,
   57.9918,       641,
    58.012,       610,
   58.0322,       624,
   58.0523,       586,
   58.0725,       614,
   58.0927,       619,
   58.1128,       623,
    58.133,       600,
   58.1532,       626,
   58.1733,       648,
   58.1935,       619,
   58.2137,       617,
   58.2338,       604,
    58.254,       633,
   58.2742,       639,
   58.2943,       643,
   58.3145,       581,
   58.3347,       612,
   58.3548,       649,
    58.375,       562,
   58.3952,       601,
   58.4154,       632,
   58.4355,       621,
   58.4557,       629,
   58.4759,       598,
    58.496,       632,
   58.5162,       619,
   58.5364,       609,
   58.5565,       656,
   58.5767,       593,
   58.5969,       632,
    58.617,       596,
   58.6372,       576,
   58.6574,       592,
   58.6775,       611,
   58.6977,       629,
   58.7179,       603,
    58.738,       646,
   58.7582,       641,
   58.7784,       562,
   58.7986,       639,
   58.8187,       568,
   58.8389,       639,
   58.8591,       628,
   58.8792,       603,
   58.8994,       630,
   58.9196,       645,
   58.9397,       604,
   58.9599,       644,
   58.9801,       618,
   59.0002,       654,
   59.0204,       580,
   59.0406,       592,
   59.0607,       659,
   59.0809,       617,
   59.1011,       649,
   59.1213,       621,
   59.1414,       600,
   59.1616,       642,
   59.1818,       653,
   59.2019,       628,
   59.2221,       622,
   59.2423,       612,
   59.2624,       617,
   59.2826,       605,
   59.3028,       595,
   59.3229,       588,
   59.3431,       617,
   59.3633,       591,
   59.3834,       630,
   59.4036,       601,
   59.4238,       625,
   59.4439,       584,
   59.4641,       591,
   59.4843,       605,
   59.5045,       632,
   59.5246,       599,
   59.5448,       644,
    59.565,       579,
   59.5851,       614,
   59.6053,       624,
   59.6255,       627,
   59.6456,       624,
   59.6658,       568,
    59.686,       603,
   59.7061,       609,
   59.7263,       610,
   59.7465,       594,
   59.7666,       595,
   59.7868,       596,
    59.807,       594,
   59.8271,       608,
   59.8473,       573,
   59.8675,       581,
   59.8877,       635,
   59.9078,       641,
    59.928,       628,
   59.9482,       628,
   59.9683,       620,
   59.9885,       623,
   60.0087,       555,
   60.0288,       603,
    60.049,       597,
   60.0692,       621,
   60.0893,       672,
   60.1095,       634,
   60.1297,       608,
   60.1498,       596,
     60.17,       590,
   60.1902,       619,
   60.2104,       625,
   60.2305,       616,
   60.2507,       582,
   60.2709,       626,
    60.291,       639,
   60.3112,       566,
   60.3314,       617,
   60.3515,       619,
   60.3717,       589,
   60.3919,       640,
    60.412,       570,
   60.4322,       604,
   60.4524,       624,
   60.4725,       651,
   60.4927,       541,
   60.5129,       580,
    60.533,       574,
   60.5532,       623,
   60.5734,       611,
   60.5936,       592,
   60.6137,       594,
   60.6339,       575,
   60.6541,       612,
   60.6742,       651,
   60.6944,       606,
   60.7146,       609,
   60.7347,       599,
   60.7549,       587,
   60.7751,       612,
   60.7952,       615,
   60.8154,       598,
   60.8356,       614,
   60.8557,       617,
   60.8759,       628,
   60.8961,       619,
   60.9163,       613,
   60.9364,       577,
   60.9566,       598,
   60.9768,       597,
   60.9969,       604,
   61.0171,       562,
   61.0373,       620,
   61.0574,       588,
   61.0776,       615,
   61.0978,       602,
   61.1179,       617,
   61.1381,       620,
   61.1583,       596,
   61.1784,       654,
   61.1986,       584,
   61.2188,       598,
   61.2389,       547,
   61.2591,       642,
   61.2793,       636,
   61.2995,       645,
   61.3196,       560,
   61.3398,       630,
     61.36,       595,
   61.3801,       557,
   61.4003,       605,
   61.4205,       598,
   61.4406,       638,
   61.4608,       586,
    61.481,       586,
   61.5011,       623,
   61.5213,       612,
   61.5415,       581,
   61.5616,       604,
   61.5818,       635,
    61.602,       584,
   61.6221,       609,
   61.6423,       599,
   61.6625,       590,
   61.6827,       656,
   61.7028,       639,
    61.723,       596,
   61.7432,       630,
   61.7633,       632,
   61.7835,       597,
   61.8037,       615,
   61.8238,       624,
    61.844,       585,
   61.8642,       620,
   61.8843,       646,
   61.9045,       612,
   61.9247,       617,
   61.9448,       600,
    61.965,       576,
   61.9852,       597,
   62.0054,       623,
   62.0255,       590,
   62.0457,       607,
   62.0659,       638,
    62.086,       607,
   62.1062,       571,
   62.1264,       607,
   62.1465,       600,
   62.1667,       610,
   62.1869,       573,
    62.207,       599,
   62.2272,       564,
   62.2474,       614,
   62.2675,       608,
   62.2877,       584,
   62.3079,       574,
    62.328,       638,
   62.3482,       588,
   62.3684,       595,
   62.3886,       609,
   62.4087,       631,
   62.4289,       579,
   62.4491,       609,
   62.4692,       626,
   62.4894,       602,
   62.5096,       583,
   62.5297,       611,
   62.5499,       601,
   62.5701,       597,
   62.5902,       605,
   62.6104,       606,
   62.6306,       600,
   62.6507,       570,
   62.6709,       568,
   62.6911,       642,
   62.7112,       602,
   62.7314,       608,
   62.7516,       610,
   62.7718,       619,
   62.7919,       632,
   62.8121,       565,
   62.8323,       620,
   62.8524,       541,
   62.8726,       590,
   62.8928,       567,
   62.9129,       603,
   62.9331,       567,
   62.9533,       590,
   62.9734,       630,
   62.9936,       628,
   63.0138,       598,
   63.0339,       616,
   63.0541,       600,
   63.0743,       591,
   63.0945,       644,
   63.1146,       590,
   63.1348,       581,
    63.155,       615,
   63.1751,       599,
   63.1953,       621,
   63.2155,       588,
   63.2356,       633,
   63.2558,       624,
    63.276,       581,
   63.2961,       592,
   63.3163,       598,
   63.3365,       600,
   63.3566,       612,
   63.3768,       604,
    63.397,       601,
   63.4171,       597,
   63.4373,       591,
   63.4575,       568,
   63.4777,       615,
   63.4978,       570,
    63.518,       595,
   63.5382,       568,
   63.5583,       614,
   63.5785,       603,
   63.5987,       567,
   63.6188,       606,
    63.639,       593,
   63.6592,       590,
   63.6793,       602,
   63.6995,       625,
   63.7197,       575,
   63.7398,       634,
     63.76,       591,
   63.7802,       585,
   63.8003,       591,
   63.8205,       619,
   63.8407,       634,
   63.8609,       599,
    63.881,       599,
   63.9012,       575,
   63.9214,       558,
   63.9415,       596,
   63.9617,       615,
   63.9819,       579,
    64.002,       625,
   64.0222,       633,
   64.0424,       599,
   64.0625,       605,
   64.0827,       596,
   64.1029,       612,
    64.123,       623,
   64.1432,       574,
   64.1634,       587,
   64.1836,       587,
   64.2037,       550,
   64.2239,       601,
   64.2441,       639,
   64.2642,       583,
   64.2844,       600,
   64.3046,       616,
   64.3247,       613,
   64.3449,       598,
   64.3651,       595,
   64.3852,       549,
   64.4054,       619,
   64.4256,       611,
   64.4457,       608,
   64.4659,       606,
   64.4861,       627,
   64.5062,       623,
   64.5264,       614,
   64.5466,       632,
   64.5668,       571,
   64.5869,       650,
   64.6071,       618,
   64.6273,       607,
   64.6474,       643,
   64.6676,       590,
   64.6878,       620,
   64.7079,       606,
   64.7281,       570,
   64.7483,       589,
   64.7684,       624,
   64.7886,       613,
   64.8088,       577,
   64.8289,       602,
   64.8491,       565,
   64.8693,       597,
   64.8894,       588,
   64.9096,       601,
   64.9298,       585,
     64.95,       603,
   64.9701,       600,
   64.9903,       572,
   65.0105,       629,
   65.0306,       606,
   65.0508,       602,
    65.071,       583,
   65.0911,       613,
   65.1113,       608,
   65.1315,       593,
   65.1516,       620,
   65.1718,       587,
    65.192,       589,
   65.2121,       600,
   65.2323,       621,
   65.2525,       622,
   65.2727,       592,
   65.2928,       574,
    65.313,       599,
   65.3332,       560,
   65.3533,       597,
   65.3735,       597,
   65.3937,       585,
   65.4138,       610,
    65.434,       600,
   65.4542,       590,
   65.4743,       591,
   65.4945,       615,
   65.5147,       592,
   65.5348,       612,
    65.555,       616,
   65.5752,       629,
   65.5953,       603,
   65.6155,       589,
   65.6357,       593,
   65.6559,       609,
    65.676,       599,
   65.6962,       595,
   65.7164,       578,
   65.7365,       566,
   65.7567,       571,
   65.7769,       603,
    65.797,       624,
   65.8172,       636,
   65.8374,       630,
   65.8575,       607,
   65.8777,       622,
   65.8979,       614,
    65.918,       594,
   65.9382,       598,
   65.9584,       636,
   65.9786,       707,
   65.9987,       605,
   66.0189,       601,
   66.0391,       602,
   66.0592,       661,
   66.0794,       587,
   66.0996,       617,
   66.1197,       629,
   66.1399,       581,
   66.1601,       595,
   66.1802,       645,
   66.2004,       579,
   66.2206,       571,
   66.2407,       606,
   66.2609,       611,
   66.2811,       623,
   66.3012,       583,
   66.3214,       612,
   66.3416,       613,
   66.3618,       625,
   66.3819,       626,
   66.4021,       615,
   66.4223,       578,
   66.4424,       592,
   66.4626,       632,
   66.4828,       562,
   66.5029,       605,
   66.5231,       569,
   66.5433,       634,
   66.5634,       604,
   66.5836,       622,
   66.6038,       597,
   66.6239,       550,
   66.6441,       592,
   66.6643,       620,
   66.6844,       622,
   66.7046,       615,
   66.7248,       616,
    66.745,       575,
   66.7651,       562,
   66.7853,       600,
   66.8055,       591,
   66.8256,       562,
   66.8458,       595,
    66.866,       618,
   66.8861,       579,
   66.9063,       601,
   66.9265,       529,
   66.9466,       599,
   66.9668,       601,
    66.987,       554,
   67.0071,       570,
   67.0273,       610,
   67.0475,       609,
   67.0677,       572,
   67.0878,       572,
    67.108,       630,
   67.1282,       629,
   67.1483,       633,
   67.1685,       628,
   67.1887,       577,
   67.2088,       574,
    67.229,       579,
   67.2492,       560,
   67.2693,       568,
   67.2895,       574,
   67.3097,       604,
   67.3298,       573,
     67.35,       565,
   67.3702,       584,
   67.3903,       599,
   67.4105,       622,
   67.4307,       622,
   67.4509,       653,
    67.471,       553,
   67.4912,       619,
   67.5114,       589,
   67.5315,       619,
   67.5517,       626,
   67.5719,       568,
    67.592,       567,
   67.6122,       592,
   67.6324,       595,
   67.6525,       605,
   67.6727,       555,
   67.6929,       580,
    67.713,       614,
   67.7332,       595,
   67.7534,       560,
   67.7735,       637,
   67.7937,       609,
   67.8139,       590,
   67.8341,       573,
   67.8542,       609,
   67.8744,       601,
   67.8946,       592,
   67.9147,       591,
   67.9349,       650,
   67.9551,       575,
   67.9752,       571,
   67.9954,       612,
   68.0156,       569,
   68.0357,       585,
   68.0559,       578,
   68.0761,       562,
   68.0962,       606,
   68.1164,       597,
   68.1366,       578,
   68.1568,       626,
   68.1769,       609,
   68.1971,       625,
   68.2173,       617,
   68.2374,       590,
   68.2576,       621,
   68.2778,       592,
   68.2979,       618,
   68.3181,       607,
   68.3383,       595,
   68.3584,       631,
   68.3786,       612,
   68.3988,       635,
   68.4189,       576,
   68.4391,       578,
   68.4593,       600,
   68.4794,       599,
   68.4996,       586,
   68.5198,       621,
     68.54,       605,
   68.5601,       630,
   68.5803,       617,
   68.6005,       628,
   68.6206,       606,
   68.6408,       606,
    68.661,       580,
   68.6811,       622,
   68.7013,       575,
   68.7215,       586,
   68.7416,       593,
   68.7618,       608,
    68.782,       593,
   68.8021,       585,
   68.8223,       612,
   68.8425,       646,
   68.8626,       632,
   68.8828,       623,
    68.903,       622,
   68.9232,       595,
   68.9433,       576,
   68.9635,       583,
   68.9837,       576,
   69.0038,       631,
    69.024,       624,
   69.0442,       628,
   69.0643,       610,
   69.0845,       588,
   69.1047,       584,
   69.1248,       599,
    69.145,       570,
   69.1652,       624,
   69.1853,       601,
   69.2055,       569,
   69.2257,       626,
   69.2459,       574,
    69.266,       582,
   69.2862,       581,
   69.3064,       546,
   69.3265,       619,
   69.3467,       589,
   69.3669,       582,
    69.387,       588,
   69.4072,       602,
   69.4274,       560,
   69.4475,       606,
   69.4677,       600,
   69.4879,       641,
    69.508,       598,
   69.5282,       638,
   69.5484,       608,
   69.5685,       627,
   69.5887,       609,
   69.6089,       590,
   69.6291,       607,
   69.6492,       593,
   69.6694,       606,
   69.6896,       595,
   69.7097,       578,
   69.7299,       596,
   69.7501,       591,
   69.7702,       587,
   69.7904,       541,
   69.8106,       607,
   69.8307,       584,
   69.8509,       645,
   69.8711,       612,
   69.8912,       642,
   69.9114,       557,
   69.9316,       588,
   69.9517,       622,
   69.9719,       601,
   69.9921,       603,
   70.0123,       625,
   70.0324,       611,
   70.0526,       599,
   70.0728,       631,
   70.0929,       558,
   70.1131,       582,
   70.1333,       641,
   70.1534,       615,
   70.1736,       603,
   70.1938,       620,
   70.2139,       600,
   70.2341,       599,
   70.2543,       612,
   70.2744,       613,
   70.2946,       618,
   70.3148,       591,
    70.335,       603,
   70.3551,       636,
   70.3753,       623,
   70.3955,       602,
   70.4156,       607,
   70.4358,       584,
    70.456,       553,
   70.4761,       598,
   70.4963,       565,
   70.5165,       577,
   70.5366,       615,
   70.5568,       579,
    70.577,       572,
   70.5971,       563,
   70.6173,       648,
   70.6375,       602,
   70.6576,       574,
   70.6778,       574,
    70.698,       563,
   70.7182,       597,
   70.7383,       542,
   70.7585,       588,
   70.7787,       609,
   70.7988,       597,
    70.819,       629,
   70.8392,       591,
   70.8593,       558,
   70.8795,       608,
   70.8997,       581,
   70.9198,       613,
     70.94,       600,
   70.9602,       624,
   70.9803,       576,
   71.0005,       599,
   71.0207,       570,
   71.0409,       618,
    71.061,       586,
   71.0812,       568,
   71.1014,       602,
   71.1215,       597,
   71.1417,       631,
   71.1619,       627,
    71.182,       650,
   71.2022,       605,
   71.2224,       600,
   71.2425,       591,
   71.2627,       621,
   71.2829,       646,
    71.303,       586,
   71.3232,       625,
   71.3434,       610,
   71.3635,       617,
   71.3837,       652,
   71.4039,       615,
   71.4241,       622,
   71.4442,       620,
   71.4644,       618,
   71.4846,       623,
   71.5047,       614,
   71.5249,       641,
   71.5451,       619,
   71.5652,       615,
   71.5854,       673,
   71.6056,       638,
   71.6257,       617,
   71.6459,       613,
   71.6661,       571,
   71.6862,       596,
   71.7064,       633,
   71.7266,       636,
   71.7467,       672,
   71.7669,       595,
   71.7871,       600,
   71.8073,       658,
   71.8274,       572,
   71.8476,       613,
   71.8678,       623,
   71.8879,       615,
   71.9081,       612,
   71.9283,       609,
   71.9484,       587,
   71.9686,       599,
   71.9888,       604,
   72.0089,       609,
   72.0291,       604,
   72.0493,       594,
   72.0694,       637,
   72.0896,       644,
   72.1098,       625,
     72.13,       642,
   72.1501,       627,
   72.1703,       588,
   72.1905,       597,
   72.2106,       636,
   72.2308,       663,
    72.251,       616,
   72.2711,       613,
   72.2913,       628,
   72.3115,       586,
   72.3316,       641,
   72.3518,       608,
    72.372,       639,
   72.3921,       610,
   72.4123,       609,
   72.4325,       650,
   72.4526,       609,
   72.4728,       589,
    72.493,       569,
   72.5132,       614,
   72.5333,       621,
   72.5535,       624,
   72.5737,       635,
   72.5938,       630,
    72.614,       622,
   72.6342,       648,
   72.6543,       591,
   72.6745,       588,
   72.6947,       628,
   72.7148,       602,
    72.735,       635,
   72.7552,       621,
   72.7753,       665,
   72.7955,       612,
   72.8157,       609,
   72.8358,       624,
    72.856,       672,
   72.8762,       626,
   72.8964,       622,
   72.9165,       654,
   72.9367,       581,
   72.9569,       605,
    72.977,       629,
   72.9972,       652,
   73.0174,       637,
   73.0375,       652,
   73.0577,       574,
   73.0779,       649,
    73.098,       584,
   73.1182,       661,
   73.1384,       611,
   73.1585,       657,
   73.1787,       652,
   73.1989,       607,
   73.2191,       593,
   73.2392,       639,
   73.2594,       680,
   73.2796,       623,
   73.2997,       648,
   73.3199,       632,
   73.3401,       649,
   73.3602,       609,
   73.3804,       604,
   73.4006,       594,
   73.4207,       641,
   73.4409,       606,
   73.4611,       661,
   73.4812,       651,
   73.5014,       638,
   73.5216,       684,
   73.5417,       636,
   73.5619,       661,
   73.5821,       690,
   73.6023,       699,
   73.6224,       738,
   73.6426,       718,
   73.6628,       751,
   73.6829,       733,
   73.7031,       784,
   73.7233,       803,
   73.7434,       798,
   73.7636,       830,
   73.7838,       883,
   73.8039,       782,
   73.8241,       830,
   73.8443,       858,
   73.8644,       897,
   73.8846,       917,
   73.9048,       976,
   73.9249,      1023,
   73.9451,      1101,
   73.9653,      1150,
   73.9855,      1348,
   74.0056,      1576,
   74.0258,      2132,
    74.046,      2940,
   74.0661,      5002,
   74.0863,      8282,
   74.1065,     11990,
   74.1266,     12360,
   74.1468,      9148,
    74.167,      5689,
   74.1871,      3520,
   74.2073,      2582,
   74.2275,      2151,
   74.2476,      2124,
   74.2678,      2713,
    74.288,      3656,
   74.3082,      5291,
   74.3283,      6672,
   74.3485,      6157,
   74.3687,      4529,
   74.3888,      2943,
    74.409,      1965,
   74.4292,      1490,
   74.4493,      1136,
   74.4695,      1029,
   74.4897,       952,
   74.5098,       921,
     74.53,       847,
   74.5502,       847,
   74.5703,       807,
   74.5905,       764,
   74.6107,       778,
   74.6308,       731,
    74.651,       767,
   74.6712,       777,
   74.6914,       716,
   74.7115,       745,
   74.7317,       702,
   74.7519,       694,
    74.772,       678,
   74.7922,       663,
   74.8124,       681,
   74.8325,       733,
   74.8527,       671,
   74.8729,       640,
    74.893,       621,
   74.9132,       632,
   74.9334,       642,
   74.9535,       619,
   74.9737,       725,
   74.9939,       651,
    75.014,       676,
   75.0342,       632,
   75.0544,       668,
   75.0746,       644,
   75.0947,       654,
   75.1149,       682,
   75.1351,       655,
   75.1552,       703,
   75.1754,       605,
   75.1956,       634,
   75.2157,       668,
   75.2359,       632,
   75.2561,       631,
   75.2762,       607,
   75.2964,       622,
   75.3166,       619,
   75.3367,       608,
   75.3569,       629,
   75.3771,       645,
   75.3973,       583,
   75.4174,       609,
   75.4376,       627,
   75.4578,       641,
   75.4779,       594,
   75.4981,       608,
   75.5183,       574,
   75.5384,       623,
   75.5586,       613,
   75.5788,       612,
   75.5989,       626,
   75.6191,       615,
   75.6393,       642,
   75.6594,       643,
   75.6796,       622,
   75.6998,       626,
   75.7199,       644,
   75.7401,       682,
   75.7603,       599,
   75.7805,       610,
   75.8006,       623,
   75.8208,       653,
    75.841,       603,
   75.8611,       626,
   75.8813,       613,
   75.9015,       595,
   75.9216,       645,
   75.9418,       583,
    75.962,       623,
   75.9821,       614,
   76.0023,       596,
   76.0225,       625,
   76.0426,       669,
   76.0628,       619,
    76.083,       604,
   76.1032,       637,
   76.1233,       605,
   76.1435,       622,
   76.1637,       625,
   76.1838,       598,
    76.204,       598,
   76.2242,       647,
   76.2443,       606,
   76.2645,       583,
   76.2847,       655,
   76.3048,       621,
    76.325,       608,
   76.3452,       636,
   76.3653,       637,
   76.3855,       647,
   76.4057,       600,
   76.4258,       630,
    76.446,       646,
   76.4662,       669,
   76.4864,       612,
   76.5065,       627,
   76.5267,       602,
   76.5469,       621,
    76.567,       586,
   76.5872,       608,
   76.6074,       607,
   76.6275,       625,
   76.6477,       610,
   76.6679,       642,
    76.688,       591,
   76.7082,       602,
   76.7284,       644,
   76.7485,       622,
   76.7687,       628,
   76.7889,       634,
    76.809,       605,
   76.8292,       622,
   76.8494,       638,
   76.8696,       650,
   76.8897,       664,
   76.9099,       586,
   76.9301,       612,
   76.9502,       591,
   76.9704,       585,
   76.9906,       611,
   77.0107,       631,
   77.0309,       595,
   77.0511,       578,
   77.0712,       609,
   77.0914,       645,
   77.1116,       624,
   77.1317,       634,
   77.1519,       643,
   77.1721,       634,
   77.1923,       627,
   77.2124,       625,
   77.2326,       595,
   77.2528,       574,
   77.2729,       613,
   77.2931,       605,
   77.3133,       579,
   77.3334,       623,
   77.3536,       581,
   77.3738,       589,
   77.3939,       621,
   77.4141,       647,
   77.4343,       617,
   77.4544,       570,
   77.4746,       604,
   77.4948,       588,
   77.5149,       624,
   77.5351,       640,
   77.5553,       612,
   77.5755,       600,
   77.5956,       607,
   77.6158,       590,
    77.636,       616,
   77.6561,       567,
   77.6763,       629,
   77.6965,       597,
   77.7166,       633,
   77.7368,       640,
    77.757,       562,
   77.7771,       605,
   77.7973,       610,
   77.8175,       619,
   77.8376,       612,
   77.8578,       619,
    77.878,       582,
   77.8981,       646,
   77.9183,       606,
   77.9385,       610,
   77.9587,       588,
   77.9788,       601,
    77.999,       617,
