;RAW4.00
[RawHeader]
Date=11/25/2025
EstimatedTotalTime=426.6
FurtherDQLReading=0
HardwareIndicator=65519
MeasuredTotalTime=4.29485
MeasurementFlag=1
NumberOfMeasuredRanges=1
NumberOfRanges=1
Time=20:40:58

[VarInfo]
Type=USER
Flags=0
Value=Lab Manager

[VarInfo]
Type=SAMPLEID
Flags=0
Value=Commander Sample ID

[VarInfo]
Type=COMMENT
Flags=0
Value=

[VarInfo]
Type=UTF
Flags=0
Value=

[VarInfo]
Type=CREATOR
Flags=0
Value=V5Converter

[VarInfo]
Type=CREATOR_VERSION
Flags=0
Value=4.4.16.0

[HardwareConfiguration]
AbsorptionFactor=9999
ActivateAbsorber=0
Alpha1=1.5406
Alpha2=1.54439
AlphaAverage=1.54184
AlphaRatio=0.5
Analyzer=0
Anode=Cu
AntiScatteringSlit=9999
BeamOpticsFlags=0
Beta=1.39222
BetaRelativeIntensity=0
DeactivateAbsorber=0
DetectorSlit=9999
DivergenceSlit=9999
GoniometerControl=0
GoniometerDiameter=282
GoniometerModel=256
GoniometerStage=7
Monochromator=0
NearSampleSlit=9999
PrimarySollerSlit=9999
SampleChanger=0
SecondSollerSlit=9999
SynchronousAxis=0
ThinFilmAttachment=9999
WaveUnit=A

[RangeHeader]
ActuallyUsedLambda=1.54184
AdditionalDetectorMask=257
DataRecordLength=4
DelayTime=0
DisplayPlaneNumber=0
EstimatedScanTime=427
ExtraParametersMask=0
GeneratorCurrent=10
GeneratorVoltage=30
Increment=0.0201685
Increment3=0
NumberOfCompletedData=1885
NumberOfCounts=1
NumberOfDetectors=0
NumberOfDrives=3
NumberOfEncoderDrives=0
NumberOfMeasuredData=1885
NumberOfVaryingParameters=0
RangeStartTime=0
RotationSpeed=0
ScanMode=1
ScanType=Locked Coupled
SimulatedMeasConditions=0
SlitChangerIn=0
SmootingWidth=0
Start=40.0015
Steps=1885
SynchronousRotation=0
Time=33

[VarInfo]
Type=PSD_DISCRIM
Flags=0
Value=0.11;0.5

[VarInfo]
Type=OPTICS_V5
Flags=0
Value=H4sIAAAAAAAEAO1d63KjOhJ+Fda/zqmtBIPtXKaITzm2J+OaOHbFTnKmtrZcBORYZzC4AOey//d99hl2X2x1QViIS8C3JBN+TCaodWm6+2vUUkfS/nieW9IjcD3o2GcV5bBakYBtOCa0H84qS396oBxV/mhqF44NnTnwgdt25gvHBrbf0X1dQq1t78uzB88qM99ffJHlp6enw6faoeM+yGq1qsh/9i9HxgzM9QNoe75uG6AStjJfb1WRbqEH7y1wpc/BWWXFR0joAM9w4cInL/Bj4UHLsSW+3oXrLBc9NBZ6t3Pgojcb3P8FDH+o+7OzitwBj9AAMt+CrxUfl1Lblu55QRehTORzoM8XqLDt2L4ObeBy/coBc6yHluEvdYtxoR6o1ePT02O5h8TkLue4tzhrTW2EZGjqqBswQr3oFvyXjl+9OdUtD2hyGln7c259hcAyrwHqHhq4EDFpA/KbJ8lNjfKD1ToCFipvdm00JDA1OUbR6Btwou9Ab2HpL824AjQ5tXK8m+bF4OrHhPzodEft64TGrBVWDOsoPhpP1bBWhrxWvISy1r0hIUP+4r8skMLHrm78xG8sGODQhXPdfSHkZBMMakgD9GxISBvSeHkPOIFIQeOidilHx44baRI9r5mSRmyEDSxUYBJZ3blu/xy4JnCvAfYzAL0wsdX3b8s5NVnMwIfj6+8T9KPV/l7IxHm5Jhp5z0OvBh9BE+kGCS98DAk920dCZMIVSikeHA9SJulgmhwp1bAq2ZMXfZT4B2LSAxc+QFu3ogSlwl6OWi7Ssb/0moPwnSLFGmsYPPedJdIj0qJQrgWE0MJ5JCOdEXICmjFtjmnJUA7J0tRxpRHQLUBtYA3AytxYcejGiMm4JZa46kmmLG0LrhEWBa3xcus++8A2MZDfDYZpCWdMkQKtj5nwHfcltGVFk+OFGseMJxH2qHoYWND7cnJosmJN5ku1uCnh1+H65qyTKx3Y545jAR1NEG5s6BPpdiDSG56bXcI59IlYwiKvWdVk7knrgKm+tPxb3VoCboigVyQ96CPXTshnFewlKri/oQta5l9LD8GnYEuZYx67mbHTJoqe6ZblPK0cjVCOarZnwPgJzFUVVqC1ESPOHKsWvx33pNH5Zl7erhEyxkg2xVq1lr7TdoHug6HrLIDrvzAWEyiR9/eIRfdMhLKr5fweuE21rslCEdaQRS08UPF//xMyUSUc9B0TNG8Quqbos4xMnTwz90Y+PzEHluy7tuWt5HgP/ND5vNXOHBXjLvaN2aNbYuh5A79Evm3IJvErCL6JJ23LP418rD3OPSHRTOHDEjnla/gw85sIdabECnU0BoKwUKWYS+vrz5fAfvBnTbXRwKJhj2nOjrJISkNktZevObqMVm/q5DL4SnFwGS02cm5pFninPwKqkpa1mOmKYIUieVuWOJh2nCVqyWzxf//ehzWm2Nxw9uJBQ7dIeQJnTA/KYaNePXrNFtfo7ca2MPfItOjcf/WMZelYS+paugfVBtErK9H60Ibz5bx5oBwenx4fndaUWv3kSK0pjePu32vVE4S4oAZGIvklvWZQ4W0Rs4b0UpC0Rk/7QJiajTD10yOsXjvdJsRYdyXGNhLfFkDGuto1yh6Bqz+IoV6M/ulxppzUt4kz1l2Js43EtwWcsa52jLNz4OupIMPET46w2qmqqttD2Kq7EmEbiW9jhK262jHCrvGaRirECHVXGHuvCFutth02NsJWrKMSVWsKbh08xTrZCZK+OsbSG7gQ2D5ZHRSgJJK3tspG1g4H057tH9XfH6CibEVXr/OjKbkXhfRCBYDfqOeDOWLs0nmABl3VvJn0rm5bl73OpP2tN9TkFYkJfAye/WbPftQtiMQzg4uVjCJaIvW07+CFjI1lEf6uyTEWsnm67F2lsnIJbSARW0kbWtlk6OEgY+yhA20/e3B1k8GZLoaD0auqCHeKD6S58wgk35HmwJjpNrYKCTmTxd/SeKxl8/ienF2WXefzdFk9bOTm6N5Lz546UqiqhAVciZbr3FOQY3BWIVUkVBrdJr+ZtC6H31rRcrGRhEeyyEjkXXKxo0bYURPZUVPYUbPYUQuzEywL8PxEyoQBQloib5PW7UUWe0HrokySmCrg8D78PeybkkWGzrvjVjIvuH4+FiIbUQEDqBXeyxN46LJSkY3uZbffvRqnSMV2TCAFbaXVSDlkQmfBvNq4EkHsASVZZdetcW+QpTTSOp+8YlOLgL9pYnk4ToQicvl10J4MrpMZJONJkeZyfMe6Ed+xvgA2skTfcYU8TFacvPmcsQFLZ8dr7r82tXQiP3O7dSw/voYXlO4q5vl5u6WEjcypLxqFfRNqVSHyCL4FKaFHctihVBMCjFp1f7FErbF+MBEXRsEvZLo55TW19tJ1sT+LmlpQuitTm7f2YWpolHD6sQ1TaySFsh/E0uKy2LulDZ0nkgHOmxQp25WV3aUEnW+xcHMnRJr5lluqhymm+EkWW+4491hde7Ul3ssWbV9+7YtfJA0UTQyNGXBfyVbbPA8ud74bklUw60j9YgWfilQ/I4dzraYmBmuZ2QhiKJW9qxqLdLI3h6IxR/YytzAXT1vD42MIIXVJnC4nR8cylyaJ7OZRhxZeJcCPHu2eWH2ZQFkmUJYJlGUCZZlA+fE2xcsEyvezJV4mUP6aCCsTKN8TxsoEyl8VZ2UC5XvCWZlA+ashrEygfE8IKxMoywTKMoGyTKAsEyjLBMoygbJMoCwTKMsEyjKBskygLBMoywTKMoGyTKAsEyjLBMoygbJMoHzr+KNMoCwTKD9tAiXLkUS/iumT7KzT+Cmg4tm7GScqd+cL/4UkG4arGcVOT+72h4PRhP4scnoyGTg0xcTzk2U+BzLzcGMl7XBjde+HGw8WbefceR5MR45lATfhiGNKyDjkmKsg/WbotmTQQ8ElNJZEifQE7N/XgX9k+LhXSSBnuYaE6hunwkb7FPSZfOxxRGTIPPKL8PePe2KymphYK0bAR+scevtxXAin6Q2diJrmRGpv50S+wmdgEkNlcw/RmVjQz3IliCz1U2CAaRv4kdXICV5EJGb6ELHy5h6E61FQZYr/YA2o98gntQ/sOmq5XMfxeudlE7OmVzSsTJpYMhZe0hcRy1SR/jGf/zPDjH/DR/7fA2QfErQ9hAVgol98R9I5hWWaMq5mhBds4KeJUp0oaQYcIb5mwIVtN52ZmPP5qH/5US30lx930PRnYm4HLtvZktP8/WxBxzgL44DNsuvjPeVdZqh+7nWGuODWWWeI97KTtI5vABumgB1a+LnBszXslNBZz+i3gpzt3wSirjOzGenzhQXuZgBYY/QC/KUgIkkjH65UJ0ChmfamMj+F+lCxGJtFbxiJ1dIisfpGkRjhMR6HvT9h3thLD5hkeHHgLInKwm1g17oJl16CldWVYB+fXrg3mE494KdZfesZevz3Iay2B1ceYybnbh1ywVU1LSlVPTypn6qNRkNN8LvHjcOTRv24dqQqvK8VhNAM7mETbitc+w7DEUCRgJl9i2FYh7v9roNCXwNnMmzhLkORh4SYKLFGsfsMwz42ifVFRj70nYaF9FrM/4zwzYaj4jcbRuW787sNw+F2cbvhyRss3uHlOks3wMyxzMQtgMsX+xm8pBxzcfnj6s/ujy654bCjSsOZ7olX4OYEsRyOEwezQMpa3mDWKOO8X3k4Wj2jProvYAvX6KYzLmrzl7v28CTPUlxNiU9Yi8wL0ecUu0XdWrmWfniNJk2pxn6HJHazGl4xZ9PpjyfkXwFHw4ba6R6gstmscZebgP09bgIKCIswkLYN2N/zNmAmj6JSs3YC+59rJ1Cp53Ii1c+wFVhGSkUjpbRAqXF4dHrSUJRqPWmBqqEcHldP68dqfQeB0sontAHGieA9hcKI4+SmzLSadMAw70kjnLfkkW8dVkPLMIDnOS4E3hoRE+Mi7j2jlLwRUvyl1/ekrIcPHRqtqcpiLudicNWekB9FHA7lZ+eh0Ri4qHQnkdHp3mdFwxkkShPAfO0EGXBRYgTUqKlErdE1Wb0CGJXZGHSdNqGDKCsJ1TJnP6vqMuJUZpxuDuAUxgVFpsREEgUYMFu+rxszPNBZ5WDPRwluc5pzmitr4SQ+y+l5TBQhKMMCjfMcZLfIWj48ALPjYkzSv8ZE3eHvWs9sIu2S3oNHTCEVRwtgwGnwt6KsUpyC4BLvvcgEK46DYs5u+K03mpAfRZxdFKHbnGBVi0yvQisOP5lEYfRDEPwf22IqXU7pckqXI7qcECvsd+8VLsZPznhGTjB6jZVIzZz8ZA+dc9yig6ZEJvFifFQxXo8YAd9H0PIkfi6GHAXNPKxILbzB7vVR6AbplI5NtLGOuVT/5i2e1Rn4EFu+VFtBkewhB6uqmiyUa3yqI/WAkWUTj/6JxSqYYK6D6Pv/u9RXv2COAAA=

[PSD]
ActualTwoTheta=9999
FirstUsedChannel=0
FixedPSD=0
PSDOpening=4.99171
PSDType=5

[Drive]
DriveFlags=1
DriveName=2Theta
DriveNumber=2
DriveOffset=0
OffsetIndex=0
OscillationAmplitude=0
OscillationSpeed=0
StartPosition=40.0015

[Drive]
DriveFlags=1
DriveName=Theta
DriveNumber=1
DriveOffset=0
OffsetIndex=0
OscillationAmplitude=0
OscillationSpeed=0
StartPosition=20.0007

[Drive]
DriveFlags=1
DriveName=Phi
DriveNumber=3
DriveOffset=0
OffsetIndex=0
OscillationAmplitude=0
OscillationSpeed=0
StartPosition=0

[Data]
     Angle,       PSD,
   40.0015,       650,
   40.0217,       666,
   40.0418,       653,
    40.062,       641,
   40.0822,       698,
   40.1023,       670,
   40.1225,       675,
   40.1427,       640,
   40.1628,       678,
    40.183,       671,
   40.2032,       690,
   40.2233,       640,
   40.2435,       687,
   40.2637,       698,
   40.2838,       690,
    40.304,       664,
   40.3242,       668,
   40.3444,       643,
   40.3645,       696,
   40.3847,       668,
   40.4049,       722,
    40.425,       667,
   40.4452,       653,
   40.4654,       657,
   40.4855,       671,
   40.5057,       661,
   40.5259,       643,
    40.546,       678,
   40.5662,       673,
   40.5864,       628,
   40.6065,       660,
   40.6267,       659,
   40.6469,       721,
   40.6671,       699,
   40.6872,       634,
   40.7074,       686,
   40.7276,       695,
   40.7477,       674,
   40.7679,       650,
   40.7881,       686,
   40.8082,       676,
   40.8284,       684,
   40.8486,       662,
   40.8687,       694,
   40.8889,       674,
   40.9091,       698,
   40.9292,       672,
   40.9494,       690,
   40.9696,       716,
   40.9897,       720,
   41.0099,       682,
   41.0301,       693,
   41.0503,       725,
   41.0704,       690,
   41.0906,       673,
   41.1108,       733,
   41.1309,       698,
   41.1511,       731,
   41.1713,       726,
   41.1914,       714,
   41.2116,       744,
   41.2318,       747,
   41.2519,       643,
   41.2721,       676,
   41.2923,       740,
   41.3124,       738,
   41.3326,       689,
   41.3528,       743,
   41.3729,       714,
   41.3931,       731,
   41.4133,       716,
   41.4335,       677,
   41.4536,       724,
   41.4738,       750,
    41.494,       737,
   41.5141,       702,
   41.5343,       714,
   41.5545,       710,
   41.5746,       750,
   41.5948,       725,
    41.615,       717,
   41.6351,       767,
   41.6553,       748,
   41.6755,       745,
   41.6956,       715,
   41.7158,       724,
    41.736,       756,
   41.7562,       749,
   41.7763,       764,
   41.7965,       817,
   41.8167,       745,
   41.8368,       767,
    41.857,       783,
   41.8772,       798,
   41.8973,       741,
   41.9175,       801,
   41.9377,       774,
   41.9578,       853,
    41.978,       817,
   41.9982,       833,
   42.0183,       875,
   42.0385,       837,
   42.0587,       885,
   42.0788,       918,
    42.099,       863,
   42.1192,       797,
   42.1394,       826,
   42.1595,       915,
   42.1797,       895,
   42.1999,       904,
     42.22,       860,
   42.2402,       848,
   42.2604,       918,
   42.2805,       921,
   42.3007,       929,
   42.3209,       938,
    42.341,       946,
   42.3612,       952,
   42.3814,       980,
   42.4015,       919,
   42.4217,       956,
   42.4419,       975,
    42.462,       995,
   42.4822,       965,
   42.5024,       996,
   42.5226,      1048,
   42.5427,      1049,
   42.5629,      1002,
   42.5831,       980,
   42.6032,      1000,
   42.6234,      1034,
   42.6436,      1078,
   42.6637,      1046,
   42.6839,      1088,
   42.7041,      1167,
   42.7242,      1080,
   42.7444,      1163,
   42.7646,      1283,
   42.7847,      1258,
   42.8049,      1243,
   42.8251,      1315,
   42.8453,      1360,
   42.8654,      1410,
   42.8856,      1403,
   42.9058,      1505,
   42.9259,      1575,
   42.9461,      1637,
   42.9663,      1665,
   42.9864,      1729,
   43.0066,      1841,
   43.0268,      1936,
   43.0469,      2166,
   43.0671,      2276,
   43.0873,      2450,
   43.1074,      2598,
   43.1276,      2827,
   43.1478,      3025,
   43.1679,      3381,
   43.1881,      3800,
   43.2083,      4139,
   43.2285,      4709,
   43.2486,      5471,
   43.2688,      6186,
    43.289,      7056,
   43.3091,      8104,
   43.3293,      9589,
   43.3495,     11182,
   43.3696,     12721,
   43.3898,     14686,
     43.41,     16037,
   43.4301,     17543,
   43.4503,     18210,
   43.4705,     18359,
   43.4906,     18069,
   43.5108,     17485,
    43.531,     16544,
   43.5511,     15646,
   43.5713,     14184,
   43.5915,     12875,
   43.6117,     11653,
   43.6318,      9977,
    43.652,      8856,
   43.6722,      7650,
   43.6923,      6653,
   43.7125,      5969,
   43.7327,      5283,
   43.7528,      4684,
    43.773,      4129,
   43.7932,      3759,
   43.8133,      3348,
   43.8335,      3194,
   43.8537,      2843,
   43.8738,      2604,
    43.894,      2439,
   43.9142,      2225,
   43.9344,      2177,
   43.9545,      2002,
   43.9747,      1899,
   43.9949,      1804,
    44.015,      1758,
   44.0352,      1671,
   44.0554,      1624,
   44.0755,      1582,
   44.0957,      1479,
   44.1159,      1343,
    44.136,      1401,
   44.1562,      1365,
   44.1764,      1375,
   44.1965,      1303,
   44.2167,      1269,
   44.2369,      1241,
    44.257,      1198,
   44.2772,      1153,
   44.2974,      1208,
   44.3176,      1177,
   44.3377,      1132,
   44.3579,      1108,
   44.3781,      1184,
   44.3982,      1040,
   44.4184,      1056,
   44.4386,      1068,
   44.4587,      1069,
   44.4789,      1056,
   44.4991,      1026,
   44.5192,      1044,
   44.5394,       992,
   44.5596,      1054,
   44.5797,       975,
   44.5999,       997,
   44.6201,      1004,
   44.6402,       930,
   44.6604,       961,
   44.6806,       939,
   44.7008,       934,
   44.7209,       913,
   44.7411,       933,
   44.7613,       909,
   44.7814,       894,
   44.8016,       960,
   44.8218,       886,
   44.8419,       885,
   44.8621,       864,
   44.8823,       857,
   44.9024,       878,
   44.9226,       881,
   44.9428,       979,
   44.9629,       865,
   44.9831,       850,
   45.0033,       870,
   45.0235,       823,
   45.0436,       868,
   45.0638,       897,
    45.084,       869,
   45.1041,       899,
   45.1243,       843,
   45.1445,       885,
   45.1646,       841,
   45.1848,       888,
    45.205,       791,
   45.2251,       857,
   45.2453,       822,
   45.2655,       859,
   45.2856,       794,
   45.3058,       821,
    45.326,       789,
   45.3461,       878,
   45.3663,       851,
   45.3865,       822,
   45.4067,       855,
   45.4268,       829,
    45.447,       830,
   45.4672,       853,
   45.4873,       811,
   45.5075,       826,
   45.5277,       851,
   45.5478,       842,
    45.568,       835,
   45.5882,       800,
   45.6083,       798,
   45.6285,       816,
   45.6487,       803,
   45.6688,       784,
    45.689,       779,
   45.7092,       784,
   45.7294,       798,
   45.7495,       788,
   45.7697,       825,
   45.7899,       741,
     45.81,       789,
   45.8302,       824,
   45.8504,       817,
   45.8705,       783,
   45.8907,       810,
   45.9109,       795,
    45.931,       799,
   45.9512,       816,
   45.9714,       817,
   45.9915,       794,
   46.0117,       820,
   46.0319,       851,
    46.052,       802,
   46.0722,       814,
   46.0924,       764,
   46.1126,       760,
   46.1327,       782,
   46.1529,       789,
   46.1731,       772,
   46.1932,       763,
   46.2134,       758,
   46.2336,       803,
   46.2537,       771,
   46.2739,       751,
   46.2941,       761,
   46.3142,       773,
   46.3344,       752,
   46.3546,       765,
   46.3747,       783,
   46.3949,       717,
   46.4151,       746,
   46.4352,       770,
   46.4554,       780,
   46.4756,       797,
   46.4958,       782,
   46.5159,       742,
   46.5361,       701,
   46.5563,       755,
   46.5764,       744,
   46.5966,       744,
   46.6168,       728,
   46.6369,       784,
   46.6571,       797,
   46.6773,       783,
   46.6974,       727,
   46.7176,       775,
   46.7378,       736,
   46.7579,       744,
   46.7781,       772,
   46.7983,       752,
   46.8185,       774,
   46.8386,       763,
   46.8588,       754,
    46.879,       722,
   46.8991,       800,
   46.9193,       715,
   46.9395,       734,
   46.9596,       774,
   46.9798,       749,
        47,       803,
   47.0201,       753,
   47.0403,       744,
   47.0605,       780,
   47.0806,       756,
   47.1008,       764,
    47.121,       745,
   47.1411,       758,
   47.1613,       748,
   47.1815,       705,
   47.2017,       718,
   47.2218,       745,
    47.242,       775,
   47.2622,       742,
   47.2823,       720,
   47.3025,       740,
   47.3227,       771,
   47.3428,       716,
    47.363,       764,
   47.3832,       746,
   47.4033,       775,
   47.4235,       771,
   47.4437,       744,
   47.4638,       691,
    47.484,       745,
   47.5042,       746,
   47.5243,       732,
   47.5445,       740,
   47.5647,       735,
   47.5849,       773,
    47.605,       728,
   47.6252,       771,
   47.6454,       760,
   47.6655,       747,
   47.6857,       719,
   47.7059,       753,
    47.726,       751,
   47.7462,       691,
   47.7664,       736,
   47.7865,       742,
   47.8067,       730,
   47.8269,       694,
    47.847,       753,
   47.8672,       744,
   47.8874,       703,
   47.9076,       748,
   47.9277,       781,
   47.9479,       769,
   47.9681,       726,
   47.9882,       794,
   48.0084,       719,
   48.0286,       786,
   48.0487,       732,
   48.0689,       779,
   48.0891,       767,
   48.1092,       748,
   48.1294,       725,
   48.1496,       766,
   48.1697,       712,
   48.1899,       767,
   48.2101,       733,
   48.2302,       758,
   48.2504,       732,
   48.2706,       782,
   48.2908,       785,
   48.3109,       761,
   48.3311,       781,
   48.3513,       741,
   48.3714,       793,
   48.3916,       741,
   48.4118,       752,
   48.4319,       784,
   48.4521,       755,
   48.4723,       756,
   48.4924,       763,
   48.5126,       769,
   48.5328,       763,
   48.5529,       779,
   48.5731,       792,
   48.5933,       782,
   48.6134,       773,
   48.6336,       774,
   48.6538,       759,
    48.674,       794,
   48.6941,       795,
   48.7143,       784,
   48.7345,       746,
   48.7546,       770,
   48.7748,       776,
    48.795,       813,
   48.8151,       788,
   48.8353,       759,
   48.8555,       806,
   48.8756,       797,
   48.8958,       800,
    48.916,       835,
   48.9361,       802,
   48.9563,       844,
   48.9765,       833,
   48.9967,       784,
   49.0168,       769,
    49.037,       804,
   49.0572,       831,
   49.0773,       864,
   49.0975,       813,
   49.1177,       814,
   49.1378,       883,
    49.158,       829,
   49.1782,       865,
   49.1983,       843,
   49.2185,       826,
   49.2387,       810,
   49.2588,       827,
    49.279,       794,
   49.2992,       885,
   49.3193,       843,
   49.3395,       920,
   49.3597,       860,
   49.3799,       838,
      49.4,       861,
   49.4202,       946,
   49.4404,       862,
   49.4605,       888,
   49.4807,       907,
   49.5009,       895,
    49.521,       894,
   49.5412,       933,
   49.5614,       932,
   49.5815,       927,
   49.6017,       962,
   49.6219,       904,
    49.642,      1019,
   49.6622,       944,
   49.6824,       975,
   49.7025,      1002,
   49.7227,       989,
   49.7429,      1015,
   49.7631,      1054,
   49.7832,      1087,
   49.8034,      1079,
   49.8236,      1072,
   49.8437,      1116,
   49.8639,      1196,
   49.8841,      1181,
   49.9042,      1185,
   49.9244,      1228,
   49.9446,      1244,
   49.9647,      1307,
   49.9849,      1350,
   50.0051,      1399,
   50.0252,      1440,
   50.0454,      1458,
   50.0656,      1511,
   50.0858,      1594,
   50.1059,      1698,
   50.1261,      1697,
   50.1463,      1804,
   50.1664,      1887,
   50.1866,      1932,
   50.2068,      2021,
   50.2269,      2151,
   50.2471,      2326,
   50.2673,      2395,
   50.2874,      2610,
   50.3076,      2681,
   50.3278,      2735,
   50.3479,      2975,
   50.3681,      3128,
   50.3883,      3294,
   50.4084,      3490,
   50.4286,      3630,
   50.4488,      3821,
    50.469,      3929,
   50.4891,      3990,
   50.5093,      4203,
   50.5295,      4321,
   50.5496,      4408,
   50.5698,      4415,
     50.59,      4414,
   50.6101,      4346,
   50.6303,      4442,
   50.6505,      4243,
   50.6706,      4158,
   50.6908,      3954,
    50.711,      3901,
   50.7311,      3722,
   50.7513,      3569,
   50.7715,      3550,
   50.7917,      3303,
   50.8118,      3145,
    50.832,      2956,
   50.8522,      2951,
   50.8723,      2733,
   50.8925,      2503,
   50.9127,      2372,
   50.9328,      2223,
    50.953,      2168,
   50.9732,      2036,
   50.9933,      1997,
   51.0135,      1866,
   51.0337,      1735,
   51.0538,      1749,
    51.074,      1557,
   51.0942,      1466,
   51.1143,      1546,
   51.1345,      1349,
   51.1547,      1341,
   51.1749,      1288,
    51.195,      1313,
   51.2152,      1259,
   51.2354,      1176,
   51.2555,      1206,
   51.2757,      1152,
   51.2959,      1141,
    51.316,      1094,
   51.3362,      1074,
   51.3564,      1023,
   51.3765,      1022,
   51.3967,      1006,
   51.4169,       967,
    51.437,       996,
   51.4572,       911,
   51.4774,       897,
   51.4975,       918,
   51.5177,       894,
   51.5379,       930,
   51.5581,       866,
   51.5782,       850,
   51.5984,       886,
   51.6186,       847,
   51.6387,       844,
   51.6589,       843,
   51.6791,       873,
   51.6992,       824,
   51.7194,       776,
   51.7396,       843,
   51.7597,       798,
   51.7799,       851,
   51.8001,       826,
   51.8202,       768,
   51.8404,       779,
   51.8606,       823,
   51.8808,       767,
   51.9009,       782,
   51.9211,       758,
   51.9413,       753,
   51.9614,       728,
   51.9816,       767,
   52.0018,       765,
   52.0219,       747,
   52.0421,       752,
   52.0623,       760,
   52.0824,       757,
   52.1026,       752,
   52.1228,       715,
   52.1429,       666,
   52.1631,       728,
   52.1833,       724,
   52.2034,       714,
   52.2236,       746,
   52.2438,       740,
    52.264,       706,
   52.2841,       712,
   52.3043,       752,
   52.3245,       734,
   52.3446,       695,
   52.3648,       709,
    52.385,       726,
   52.4051,       719,
   52.4253,       766,
   52.4455,       694,
   52.4656,       689,
   52.4858,       747,
    52.506,       697,
   52.5261,       716,
   52.5463,       670,
   52.5665,       757,
   52.5866,       719,
   52.6068,       690,
    52.627,       755,
   52.6472,       656,
   52.6673,       728,
   52.6875,       669,
   52.7077,       742,
   52.7278,       676,
    52.748,       675,
   52.7682,       684,
   52.7883,       682,
   52.8085,       686,
   52.8287,       685,
   52.8488,       780,
    52.869,       704,
   52.8892,       690,
   52.9093,       748,
   52.9295,       701,
   52.9497,       724,
   52.9699,       710,
     52.99,       636,
   53.0102,       728,
   53.0304,       738,
   53.0505,       648,
   53.0707,       646,
   53.0909,       721,
    53.111,       677,
   53.1312,       710,
   53.1514,       673,
   53.1715,       656,
   53.1917,       679,
   53.2119,       653,
    53.232,       713,
   53.2522,       672,
   53.2724,       676,
   53.2925,       724,
   53.3127,       729,
   53.3329,       666,
   53.3531,       675,
   53.3732,       676,
   53.3934,       689,
   53.4136,       677,
   53.4337,       655,
   53.4539,       696,
   53.4741,       658,
   53.4942,       717,
   53.5144,       656,
   53.5346,       656,
   53.5547,       663,
   53.5749,       679,
   53.5951,       664,
   53.6152,       668,
   53.6354,       667,
   53.6556,       674,
   53.6757,       640,
   53.6959,       650,
   53.7161,       693,
   53.7363,       660,
   53.7564,       694,
   53.7766,       625,
   53.7968,       693,
   53.8169,       668,
   53.8371,       654,
   53.8573,       659,
   53.8774,       682,
   53.8976,       672,
   53.9178,       667,
   53.9379,       664,
   53.9581,       674,
   53.9783,       605,
   53.9984,       640,
   54.0186,       655,
   54.0388,       658,
    54.059,       680,
   54.0791,       669,
   54.0993,       685,
   54.1195,       619,
   54.1396,       692,
   54.1598,       721,
     54.18,       666,
   54.2001,       638,
   54.2203,       677,
   54.2405,       689,
   54.2606,       698,
   54.2808,       645,
    54.301,       649,
   54.3211,       657,
   54.3413,       697,
   54.3615,       662,
   54.3816,       671,
   54.4018,       665,
    54.422,       678,
   54.4422,       672,
   54.4623,       656,
   54.4825,       694,
   54.5027,       657,
   54.5228,       663,
    54.543,       656,
   54.5632,       648,
   54.5833,       672,
   54.6035,       659,
   54.6237,       684,
   54.6438,       640,
    54.664,       643,
   54.6842,       619,
   54.7043,       650,
   54.7245,       669,
   54.7447,       672,
   54.7648,       676,
    54.785,       655,
   54.8052,       647,
   54.8254,       612,
   54.8455,       659,
   54.8657,       633,
   54.8859,       630,
    54.906,       623,
   54.9262,       656,
   54.9464,       682,
   54.9665,       651,
   54.9867,       672,
   55.0069,       698,
    55.027,       650,
   55.0472,       653,
   55.0674,       639,
   55.0875,       673,
   55.1077,       633,
   55.1279,       651,
   55.1481,       674,
   55.1682,       638,
   55.1884,       651,
   55.2086,       613,
   55.2287,       653,
   55.2489,       640,
   55.2691,       675,
   55.2892,       616,
   55.3094,       675,
   55.3296,       668,
   55.3497,       643,
   55.3699,       639,
   55.3901,       647,
   55.4102,       653,
   55.4304,       649,
   55.4506,       671,
   55.4707,       663,
   55.4909,       637,
   55.5111,       613,
   55.5313,       666,
   55.5514,       685,
   55.5716,       693,
   55.5918,       648,
   55.6119,       665,
   55.6321,       675,
   55.6523,       624,
   55.6724,       617,
   55.6926,       712,
   55.7128,       639,
   55.7329,       665,
   55.7531,       632,
   55.7733,       671,
   55.7934,       664,
   55.8136,       697,
   55.8338,       682,
    55.854,       670,
   55.8741,       671,
   55.8943,       662,
   55.9145,       618,
   55.9346,       697,
   55.9548,       675,
    55.975,       639,
   55.9951,       648,
   56.0153,       657,
   56.0355,       603,
   56.0556,       674,
   56.0758,       652,
    56.096,       647,
   56.1161,       652,
   56.1363,       615,
   56.1565,       622,
   56.1766,       596,
   56.1968,       626,
    56.217,       644,
   56.2372,       648,
   56.2573,       603,
   56.2775,       643,
   56.2977,       664,
   56.3178,       628,
    56.338,       650,
   56.3582,       627,
   56.3783,       624,
   56.3985,       637,
   56.4187,       615,
   56.4388,       632,
    56.459,       643,
   56.4792,       657,
   56.4993,       611,
   56.5195,       619,
   56.5397,       658,
   56.5598,       639,
     56.58,       645,
   56.6002,       643,
   56.6204,       670,
   56.6405,       679,
   56.6607,       612,
   56.6809,       639,
    56.701,       587,
   56.7212,       635,
   56.7414,       666,
   56.7615,       643,
   56.7817,       621,
   56.8019,       634,
    56.822,       656,
   56.8422,       643,
   56.8624,       627,
   56.8825,       617,
   56.9027,       666,
   56.9229,       641,
   56.9431,       637,
   56.9632,       652,
   56.9834,       635,
   57.0036,       651,
   57.0237,       652,
   57.0439,       660,
   57.0641,       616,
   57.0842,       640,
   57.1044,       640,
   57.1246,       641,
   57.1447,       595,
   57.1649,       665,
   57.1851,       659,
   57.2052,       672,
   57.2254,       641,
   57.2456,       658,
   57.2657,       672,
   57.2859,       626,
   57.3061,       612,
   57.3263,       636,
   57.3464,       677,
   57.3666,       631,
   57.3868,       627,
   57.4069,       688,
   57.4271,       651,
   57.4473,       622,
   57.4674,       620,
   57.4876,       637,
   57.5078,       627,
   57.5279,       610,
   57.5481,       659,
   57.5683,       637,
   57.5884,       620,
   57.6086,       694,
   57.6288,       640,
   57.6489,       588,
   57.6691,       598,
   57.6893,       640,
   57.7095,       672,
   57.7296,       678,
   57.7498,       685,
     57.77,       648,
   57.7901,       620,
   57.8103,       667,
   57.8305,       672,
   57.8506,       671,
   57.8708,       628,
    57.891,       643,
   57.9111,       664,
   57.9313,       650,
   57.9515,       615,
   57.9716,       614,
   57.9918,       610,
    58.012,       643,
   58.0322,       659,
   58.0523,       620,
   58.0725,       607,
   58.0927,       635,
   58.1128,       624,
    58.133,       631,
   58.1532,       664,
   58.1733,       607,
   58.1935,       629,
   58.2137,       634,
   58.2338,       622,
    58.254,       675,
   58.2742,       622,
   58.2943,       637,
   58.3145,       621,
   58.3347,       645,
   58.3548,       664,
    58.375,       622,
   58.3952,       615,
   58.4154,       686,
   58.4355,       620,
   58.4557,       658,
   58.4759,       626,
    58.496,       595,
   58.5162,       692,
   58.5364,       639,
   58.5565,       621,
   58.5767,       636,
   58.5969,       622,
    58.617,       658,
   58.6372,       651,
   58.6574,       631,
   58.6775,       654,
   58.6977,       685,
   58.7179,       662,
    58.738,       644,
   58.7582,       628,
   58.7784,       641,
   58.7986,       650,
   58.8187,       652,
   58.8389,       610,
   58.8591,       619,
   58.8792,       636,
   58.8994,       611,
   58.9196,       648,
   58.9397,       630,
   58.9599,       672,
   58.9801,       642,
   59.0002,       656,
   59.0204,       659,
   59.0406,       593,
   59.0607,       591,
   59.0809,       629,
   59.1011,       654,
   59.1213,       608,
   59.1414,       603,
   59.1616,       626,
   59.1818,       647,
   59.2019,       646,
   59.2221,       631,
   59.2423,       634,
   59.2624,       598,
   59.2826,       638,
   59.3028,       665,
   59.3229,       649,
   59.3431,       610,
   59.3633,       624,
   59.3834,       641,
   59.4036,       646,
   59.4238,       626,
   59.4439,       644,
   59.4641,       628,
   59.4843,       618,
   59.5045,       611,
   59.5246,       640,
   59.5448,       662,
    59.565,       615,
   59.5851,       625,
   59.6053,       626,
   59.6255,       625,
   59.6456,       630,
   59.6658,       672,
    59.686,       605,
   59.7061,       574,
   59.7263,       658,
   59.7465,       596,
   59.7666,       640,
   59.7868,       628,
    59.807,       683,
   59.8271,       672,
   59.8473,       607,
   59.8675,       640,
   59.8877,       654,
   59.9078,       572,
    59.928,       611,
   59.9482,       684,
   59.9683,       629,
   59.9885,       579,
   60.0087,       600,
   60.0288,       582,
    60.049,       626,
   60.0692,       603,
   60.0893,       646,
   60.1095,       615,
   60.1297,       609,
   60.1498,       615,
     60.17,       594,
   60.1902,       626,
   60.2104,       608,
   60.2305,       611,
   60.2507,       660,
   60.2709,       625,
    60.291,       622,
   60.3112,       638,
   60.3314,       648,
   60.3515,       664,
   60.3717,       605,
   60.3919,       610,
    60.412,       645,
   60.4322,       673,
   60.4524,       623,
   60.4725,       612,
   60.4927,       630,
   60.5129,       618,
    60.533,       609,
   60.5532,       676,
   60.5734,       632,
   60.5936,       617,
   60.6137,       650,
   60.6339,       632,
   60.6541,       611,
   60.6742,       603,
   60.6944,       650,
   60.7146,       630,
   60.7347,       647,
   60.7549,       592,
   60.7751,       611,
   60.7952,       621,
   60.8154,       600,
   60.8356,       637,
   60.8557,       609,
   60.8759,       652,
   60.8961,       617,
   60.9163,       626,
   60.9364,       607,
   60.9566,       613,
   60.9768,       660,
   60.9969,       610,
   61.0171,       588,
   61.0373,       640,
   61.0574,       651,
   61.0776,       626,
   61.0978,       613,
   61.1179,       595,
   61.1381,       619,
   61.1583,       626,
   61.1784,       643,
   61.1986,       604,
   61.2188,       649,
   61.2389,       628,
   61.2591,       612,
   61.2793,       592,
   61.2995,       646,
   61.3196,       603,
   61.3398,       599,
     61.36,       606,
   61.3801,       618,
   61.4003,       631,
   61.4205,       619,
   61.4406,       621,
   61.4608,       611,
    61.481,       638,
   61.5011,       585,
   61.5213,       591,
   61.5415,       670,
   61.5616,       611,
   61.5818,       630,
    61.602,       624,
   61.6221,       670,
   61.6423,       639,
   61.6625,       609,
   61.6827,       591,
   61.7028,       608,
    61.723,       616,
   61.7432,       537,
   61.7633,       636,
   61.7835,       628,
   61.8037,       615,
   61.8238,       661,
    61.844,       617,
   61.8642,       634,
   61.8843,       601,
   61.9045,       641,
   61.9247,       613,
   61.9448,       626,
    61.965,       614,
   61.9852,       631,
   62.0054,       602,
   62.0255,       661,
   62.0457,       673,
   62.0659,       639,
    62.086,       649,
   62.1062,       579,
   62.1264,       605,
   62.1465,       650,
   62.1667,       590,
   62.1869,       610,
    62.207,       622,
   62.2272,       578,
   62.2474,       611,
   62.2675,       649,
   62.2877,       644,
   62.3079,       638,
    62.328,       606,
   62.3482,       607,
   62.3684,       630,
   62.3886,       634,
   62.4087,       597,
   62.4289,       627,
   62.4491,       694,
   62.4692,       611,
   62.4894,       650,
   62.5096,       659,
   62.5297,       589,
   62.5499,       657,
   62.5701,       617,
   62.5902,       632,
   62.6104,       642,
   62.6306,       580,
   62.6507,       614,
   62.6709,       632,
   62.6911,       595,
   62.7112,       610,
   62.7314,       598,
   62.7516,       626,
   62.7718,       635,
   62.7919,       651,
   62.8121,       648,
   62.8323,       599,
   62.8524,       599,
   62.8726,       612,
   62.8928,       631,
   62.9129,       663,
   62.9331,       575,
   62.9533,       638,
   62.9734,       554,
   62.9936,       633,
   63.0138,       644,
   63.0339,       593,
   63.0541,       641,
   63.0743,       612,
   63.0945,       648,
   63.1146,       632,
   63.1348,       627,
    63.155,       596,
   63.1751,       608,
   63.1953,       606,
   63.2155,       608,
   63.2356,       629,
   63.2558,       607,
    63.276,       631,
   63.2961,       632,
   63.3163,       626,
   63.3365,       620,
   63.3566,       610,
   63.3768,       619,
    63.397,       555,
   63.4171,       598,
   63.4373,       660,
   63.4575,       638,
   63.4777,       676,
   63.4978,       636,
    63.518,       634,
   63.5382,       633,
   63.5583,       634,
   63.5785,       624,
   63.5987,       614,
   63.6188,       607,
    63.639,       633,
   63.6592,       647,
   63.6793,       613,
   63.6995,       601,
   63.7197,       665,
   63.7398,       633,
     63.76,       679,
   63.7802,       612,
   63.8003,       639,
   63.8205,       650,
   63.8407,       613,
   63.8609,       614,
    63.881,       606,
   63.9012,       594,
   63.9214,       625,
   63.9415,       660,
   63.9617,       609,
   63.9819,       658,
    64.002,       603,
   64.0222,       600,
   64.0424,       627,
   64.0625,       619,
   64.0827,       564,
   64.1029,       647,
    64.123,       611,
   64.1432,       612,
   64.1634,       558,
   64.1836,       630,
   64.2037,       622,
   64.2239,       604,
   64.2441,       590,
   64.2642,       638,
   64.2844,       673,
   64.3046,       638,
   64.3247,       615,
   64.3449,       585,
   64.3651,       639,
   64.3852,       618,
   64.4054,       625,
   64.4256,       596,
   64.4457,       619,
   64.4659,       639,
   64.4861,       628,
   64.5062,       617,
   64.5264,       649,
   64.5466,       633,
   64.5668,       616,
   64.5869,       598,
   64.6071,       591,
   64.6273,       579,
   64.6474,       654,
   64.6676,       628,
   64.6878,       581,
   64.7079,       611,
   64.7281,       624,
   64.7483,       629,
   64.7684,       605,
   64.7886,       609,
   64.8088,       605,
   64.8289,       597,
   64.8491,       607,
   64.8693,       663,
   64.8894,       630,
   64.9096,       642,
   64.9298,       617,
     64.95,       623,
   64.9701,       657,
   64.9903,       649,
   65.0105,       602,
   65.0306,       622,
   65.0508,       597,
    65.071,       660,
   65.0911,       574,
   65.1113,       581,
   65.1315,       596,
   65.1516,       658,
   65.1718,       636,
    65.192,       674,
   65.2121,       552,
   65.2323,       584,
   65.2525,       610,
   65.2727,       638,
   65.2928,       616,
    65.313,       632,
   65.3332,       608,
   65.3533,       616,
   65.3735,       605,
   65.3937,       650,
   65.4138,       631,
    65.434,       611,
   65.4542,       620,
   65.4743,       571,
   65.4945,       635,
   65.5147,       610,
   65.5348,       636,
    65.555,       615,
   65.5752,       654,
   65.5953,       645,
   65.6155,       626,
   65.6357,       620,
   65.6559,       612,
    65.676,       617,
   65.6962,       597,
   65.7164,       604,
   65.7365,       639,
   65.7567,       668,
   65.7769,       606,
    65.797,       601,
   65.8172,       628,
   65.8374,       621,
   65.8575,       630,
   65.8777,       597,
   65.8979,       615,
    65.918,       595,
   65.9382,       600,
   65.9584,       611,
   65.9786,       623,
   65.9987,       661,
   66.0189,       609,
   66.0391,       644,
   66.0592,       623,
   66.0794,       595,
   66.0996,       601,
   66.1197,       654,
   66.1399,       599,
   66.1601,       588,
   66.1802,       594,
   66.2004,       641,
   66.2206,       652,
   66.2407,       627,
   66.2609,       605,
   66.2811,       603,
   66.3012,       607,
   66.3214,       645,
   66.3416,       626,
   66.3618,       577,
   66.3819,       625,
   66.4021,       582,
   66.4223,       599,
   66.4424,       633,
   66.4626,       600,
   66.4828,       642,
   66.5029,       589,
   66.5231,       586,
   66.5433,       579,
   66.5634,       561,
   66.5836,       590,
   66.6038,       620,
   66.6239,       599,
   66.6441,       621,
   66.6643,       613,
   66.6844,       608,
   66.7046,       667,
   66.7248,       624,
    66.745,       647,
   66.7651,       591,
   66.7853,       612,
   66.8055,       622,
   66.8256,       627,
   66.8458,       612,
    66.866,       634,
   66.8861,       618,
   66.9063,       655,
   66.9265,       638,
   66.9466,       625,
   66.9668,       562,
    66.987,       612,
   67.0071,       615,
   67.0273,       576,
   67.0475,       577,
   67.0677,       637,
   67.0878,       609,
    67.108,       643,
   67.1282,       612,
   67.1483,       628,
   67.1685,       639,
   67.1887,       601,
   67.2088,       634,
    67.229,       591,
   67.2492,       636,
   67.2693,       603,
   67.2895,       611,
   67.3097,       558,
   67.3298,       563,
     67.35,       607,
   67.3702,       594,
   67.3903,       588,
   67.4105,       582,
   67.4307,       627,
   67.4509,       614,
    67.471,       613,
   67.4912,       636,
   67.5114,       575,
   67.5315,       671,
   67.5517,       586,
   67.5719,       624,
    67.592,       604,
   67.6122,       601,
   67.6324,       629,
   67.6525,       581,
   67.6727,       636,
   67.6929,       584,
    67.713,       576,
   67.7332,       592,
   67.7534,       608,
   67.7735,       604,
   67.7937,       604,
   67.8139,       574,
   67.8341,       618,
   67.8542,       579,
   67.8744,       621,
   67.8946,       613,
   67.9147,       594,
   67.9349,       604,
   67.9551,       602,
   67.9752,       626,
   67.9954,       622,
   68.0156,       630,
   68.0357,       575,
   68.0559,       610,
   68.0761,       622,
   68.0962,       601,
   68.1164,       657,
   68.1366,       651,
   68.1568,       676,
   68.1769,       602,
   68.1971,       594,
   68.2173,       619,
   68.2374,       594,
   68.2576,       625,
   68.2778,       633,
   68.2979,       639,
   68.3181,       623,
   68.3383,       634,
   68.3584,       605,
   68.3786,       618,
   68.3988,       583,
   68.4189,       607,
   68.4391,       644,
   68.4593,       658,
   68.4794,       601,
   68.4996,       618,
   68.5198,       636,
     68.54,       625,
   68.5601,       590,
   68.5803,       590,
   68.6005,       667,
   68.6206,       645,
   68.6408,       608,
    68.661,       604,
   68.6811,       621,
   68.7013,       600,
   68.7215,       615,
   68.7416,       592,
   68.7618,       623,
    68.782,       603,
   68.8021,       617,
   68.8223,       628,
   68.8425,       639,
   68.8626,       615,
   68.8828,       613,
    68.903,       644,
   68.9232,       639,
   68.9433,       645,
   68.9635,       610,
   68.9837,       589,
   69.0038,       639,
    69.024,       607,
   69.0442,       595,
   69.0643,       594,
   69.0845,       628,
   69.1047,       630,
   69.1248,       604,
    69.145,       601,
   69.1652,       608,
   69.1853,       637,
   69.2055,       632,
   69.2257,       640,
   69.2459,       617,
    69.266,       639,
   69.2862,       608,
   69.3064,       583,
   69.3265,       604,
   69.3467,       631,
   69.3669,       617,
    69.387,       614,
   69.4072,       648,
   69.4274,       633,
   69.4475,       635,
   69.4677,       644,
   69.4879,       626,
    69.508,       595,
   69.5282,       605,
   69.5484,       615,
   69.5685,       625,
   69.5887,       619,
   69.6089,       610,
   69.6291,       595,
   69.6492,       630,
   69.6694,       612,
   69.6896,       587,
   69.7097,       600,
   69.7299,       620,
   69.7501,       626,
   69.7702,       623,
   69.7904,       587,
   69.8106,       548,
   69.8307,       580,
   69.8509,       598,
   69.8711,       592,
   69.8912,       627,
   69.9114,       622,
   69.9316,       615,
   69.9517,       577,
   69.9719,       572,
   69.9921,       661,
   70.0123,       604,
   70.0324,       643,
   70.0526,       592,
   70.0728,       625,
   70.0929,       646,
   70.1131,       635,
   70.1333,       634,
   70.1534,       623,
   70.1736,       606,
   70.1938,       629,
   70.2139,       611,
   70.2341,       630,
   70.2543,       605,
   70.2744,       596,
   70.2946,       625,
   70.3148,       613,
    70.335,       623,
   70.3551,       579,
   70.3753,       632,
   70.3955,       597,
   70.4156,       614,
   70.4358,       629,
    70.456,       612,
   70.4761,       635,
   70.4963,       592,
   70.5165,       588,
   70.5366,       664,
   70.5568,       590,
    70.577,       615,
   70.5971,       597,
   70.6173,       643,
   70.6375,       556,
   70.6576,       656,
   70.6778,       615,
    70.698,       635,
   70.7182,       570,
   70.7383,       574,
   70.7585,       634,
   70.7787,       625,
   70.7988,       636,
    70.819,       626,
   70.8392,       604,
   70.8593,       603,
   70.8795,       587,
   70.8997,       613,
   70.9198,       636,
     70.94,       588,
   70.9602,       593,
   70.9803,       641,
   71.0005,       612,
   71.0207,       621,
   71.0409,       605,
    71.061,       629,
   71.0812,       612,
   71.1014,       598,
   71.1215,       611,
   71.1417,       551,
   71.1619,       644,
    71.182,       601,
   71.2022,       635,
   71.2224,       657,
   71.2425,       596,
   71.2627,       591,
   71.2829,       577,
    71.303,       605,
   71.3232,       597,
   71.3434,       612,
   71.3635,       633,
   71.3837,       662,
   71.4039,       600,
   71.4241,       590,
   71.4442,       623,
   71.4644,       635,
   71.4846,       612,
   71.5047,       627,
   71.5249,       616,
   71.5451,       622,
   71.5652,       613,
   71.5854,       619,
   71.6056,       594,
   71.6257,       656,
   71.6459,       611,
   71.6661,       654,
   71.6862,       609,
   71.7064,       622,
   71.7266,       635,
   71.7467,       598,
   71.7669,       624,
   71.7871,       580,
   71.8073,       636,
   71.8274,       590,
   71.8476,       615,
   71.8678,       647,
   71.8879,       640,
   71.9081,       625,
   71.9283,       643,
   71.9484,       628,
   71.9686,       634,
   71.9888,       612,
   72.0089,       622,
   72.0291,       635,
   72.0493,       589,
   72.0694,       650,
   72.0896,       620,
   72.1098,       636,
     72.13,       590,
   72.1501,       684,
   72.1703,       629,
   72.1905,       619,
   72.2106,       637,
   72.2308,       635,
    72.251,       616,
   72.2711,       605,
   72.2913,       603,
   72.3115,       603,
   72.3316,       642,
   72.3518,       580,
    72.372,       596,
   72.3921,       641,
   72.4123,       590,
   72.4325,       634,
   72.4526,       615,
   72.4728,       618,
    72.493,       617,
   72.5132,       658,
   72.5333,       653,
   72.5535,       624,
   72.5737,       678,
   72.5938,       636,
    72.614,       611,
   72.6342,       600,
   72.6543,       647,
   72.6745,       646,
   72.6947,       623,
   72.7148,       660,
    72.735,       652,
   72.7552,       651,
   72.7753,       613,
   72.7955,       624,
   72.8157,       608,
   72.8358,       638,
    72.856,       614,
   72.8762,       671,
   72.8964,       674,
   72.9165,       606,
   72.9367,       626,
   72.9569,       684,
    72.977,       624,
   72.9972,       621,
   73.0174,       615,
   73.0375,       633,
   73.0577,       620,
   73.0779,       620,
    73.098,       663,
   73.1182,       638,
   73.1384,       650,
   73.1585,       630,
   73.1787,       653,
   73.1989,       652,
   73.2191,       690,
   73.2392,       681,
   73.2594,       682,
   73.2796,       661,
   73.2997,       656,
   73.3199,       668,
   73.3401,       664,
   73.3602,       652,
   73.3804,       650,
   73.4006,       730,
   73.4207,       685,
   73.4409,       701,
   73.4611,       730,
   73.4812,       679,
   73.5014,       665,
   73.5216,       719,
   73.5417,       718,
   73.5619,       714,
   73.5821,       768,
   73.6023,       729,
   73.6224,       754,
   73.6426,       795,
   73.6628,       757,
   73.6829,       762,
   73.7031,       787,
   73.7233,       788,
   73.7434,       785,
   73.7636,       804,
   73.7838,       867,
   73.8039,       854,
   73.8241,       880,
   73.8443,       847,
   73.8644,       895,
   73.8846,       928,
   73.9048,       936,
   73.9249,       968,
   73.9451,      1027,
   73.9653,      1056,
   73.9855,      1062,
   74.0056,      1064,
   74.0258,      1130,
    74.046,      1144,
   74.0661,      1217,
   74.0863,      1267,
   74.1065,      1303,
   74.1266,      1284,
   74.1468,      1337,
    74.167,      1347,
   74.1871,      1416,
   74.2073,      1362,
   74.2275,      1428,
   74.2476,      1405,
   74.2678,      1392,
    74.288,      1447,
   74.3082,      1434,
   74.3283,      1396,
   74.3485,      1290,
   74.3687,      1327,
   74.3888,      1377,
    74.409,      1336,
   74.4292,      1294,
   74.4493,      1263,
   74.4695,      1287,
   74.4897,      1189,
   74.5098,      1136,
     74.53,      1129,
   74.5502,      1111,
   74.5703,      1047,
   74.5905,      1041,
   74.6107,      1027,
   74.6308,      1044,
    74.651,       993,
   74.6712,       955,
   74.6914,       939,
   74.7115,       850,
   74.7317,       862,
   74.7519,       838,
    74.772,       846,
   74.7922,       848,
   74.8124,       818,
   74.8325,       822,
   74.8527,       752,
   74.8729,       784,
    74.893,       760,
   74.9132,       760,
   74.9334,       745,
   74.9535,       726,
   74.9737,       735,
   74.9939,       715,
    75.014,       733,
   75.0342,       686,
   75.0544,       699,
   75.0746,       700,
   75.0947,       716,
   75.1149,       715,
   75.1351,       691,
   75.1552,       628,
   75.1754,       650,
   75.1956,       657,
   75.2157,       646,
   75.2359,       626,
   75.2561,       669,
   75.2762,       678,
   75.2964,       647,
   75.3166,       639,
   75.3367,       640,
   75.3569,       652,
   75.3771,       652,
   75.3973,       666,
   75.4174,       618,
   75.4376,       640,
   75.4578,       620,
   75.4779,       678,
   75.4981,       660,
   75.5183,       657,
   75.5384,       677,
   75.5586,       631,
   75.5788,       605,
   75.5989,       623,
   75.6191,       628,
   75.6393,       631,
   75.6594,       667,
   75.6796,       677,
   75.6998,       663,
   75.7199,       595,
   75.7401,       649,
   75.7603,       683,
   75.7805,       639,
   75.8006,       616,
   75.8208,       636,
    75.841,       642,
   75.8611,       661,
   75.8813,       605,
   75.9015,       572,
   75.9216,       636,
   75.9418,       629,
    75.962,       587,
   75.9821,       617,
   76.0023,       639,
   76.0225,       644,
   76.0426,       633,
   76.0628,       626,
    76.083,       613,
   76.1032,       600,
   76.1233,       639,
   76.1435,       621,
   76.1637,       603,
   76.1838,       637,
    76.204,       637,
   76.2242,       594,
   76.2443,       612,
   76.2645,       622,
   76.2847,       637,
   76.3048,       617,
    76.325,       655,
   76.3452,       617,
   76.3653,       616,
   76.3855,       625,
   76.4057,       621,
   76.4258,       624,
    76.446,       623,
   76.4662,       611,
   76.4864,       561,
   76.5065,       666,
   76.5267,       640,
   76.5469,       616,
    76.567,       613,
   76.5872,       589,
   76.6074,       597,
   76.6275,       658,
   76.6477,       591,
   76.6679,       644,
    76.688,       643,
   76.7082,       662,
   76.7284,       620,
   76.7485,       646,
   76.7687,       652,
   76.7889,       631,
    76.809,       639,
   76.8292,       654,
   76.8494,       593,
   76.8696,       689,
   76.8897,       616,
   76.9099,       618,
   76.9301,       591,
   76.9502,       632,
   76.9704,       634,
   76.9906,       635,
   77.0107,       619,
   77.0309,       615,
   77.0511,       601,
   77.0712,       613,
   77.0914,       617,
   77.1116,       607,
   77.1317,       575,
   77.1519,       650,
   77.1721,       629,
   77.1923,       640,
   77.2124,       596,
   77.2326,       609,
   77.2528,       605,
   77.2729,       600,
   77.2931,       571,
   77.3133,       610,
   77.3334,       621,
   77.3536,       610,
   77.3738,       582,
   77.3939,       612,
   77.4141,       698,
   77.4343,       612,
   77.4544,       621,
   77.4746,       617,
   77.4948,       631,
   77.5149,       637,
   77.5351,       607,
   77.5553,       595,
   77.5755,       610,
   77.5956,       603,
   77.6158,       643,
    77.636,       606,
   77.6561,       641,
   77.6763,       588,
   77.6965,       588,
   77.7166,       635,
   77.7368,       597,
    77.757,       601,
   77.7771,       634,
   77.7973,       619,
   77.8175,       598,
   77.8376,       658,
   77.8578,       637,
    77.878,       644,
   77.8981,       623,
   77.9183,       653,
   77.9385,       630,
   77.9587,       628,
   77.9788,       603,
    77.999,       657,
