;RAW4.00
[RawHeader]
Date=11/26/2025
EstimatedTotalTime=426.6
FurtherDQLReading=0
HardwareIndicator=65519
MeasuredTotalTime=4.32821
MeasurementFlag=1
NumberOfMeasuredRanges=1
NumberOfRanges=1
Time=05:33:05

[VarInfo]
Type=USER
Flags=0
Value=Lab Manager

[VarInfo]
Type=SAMPLEID
Flags=0
Value=Commander Sample ID

[VarInfo]
Type=COMMENT
Flags=0
Value=

[VarInfo]
Type=UTF
Flags=0
Value=

[VarInfo]
Type=CREATOR
Flags=0
Value=V5Converter

[VarInfo]
Type=CREATOR_VERSION
Flags=0
Value=4.4.16.0

[HardwareConfiguration]
AbsorptionFactor=9999
ActivateAbsorber=0
Alpha1=1.5406
Alpha2=1.54439
AlphaAverage=1.54184
AlphaRatio=0.5
Analyzer=0
Anode=Cu
AntiScatteringSlit=9999
BeamOpticsFlags=0
Beta=1.39222
BetaRelativeIntensity=0
DeactivateAbsorber=0
DetectorSlit=9999
DivergenceSlit=9999
GoniometerControl=0
GoniometerDiameter=282
GoniometerModel=256
GoniometerStage=7
Monochromator=0
NearSampleSlit=9999
PrimarySollerSlit=9999
SampleChanger=0
SecondSollerSlit=9999
SynchronousAxis=0
ThinFilmAttachment=9999
WaveUnit=A

[RangeHeader]
ActuallyUsedLambda=1.54184
AdditionalDetectorMask=257
DataRecordLength=4
DelayTime=0
DisplayPlaneNumber=0
EstimatedScanTime=427
ExtraParametersMask=0
GeneratorCurrent=10
GeneratorVoltage=30
Increment=0.0201685
Increment3=0
NumberOfCompletedData=1885
NumberOfCounts=1
NumberOfDetectors=0
NumberOfDrives=3
NumberOfEncoderDrives=0
NumberOfMeasuredData=1885
NumberOfVaryingParameters=0
RangeStartTime=0
RotationSpeed=0
ScanMode=1
ScanType=Locked Coupled
SimulatedMeasConditions=0
SlitChangerIn=0
SmootingWidth=0
Start=40.0015
Steps=1885
SynchronousRotation=0
Time=33

[VarInfo]
Type=PSD_DISCRIM
Flags=0
Value=0.11;0.5

[VarInfo]
Type=OPTICS_V5
Flags=0
Value=H4sIAAAAAAAEAO1d63KjOhJ+Fda/zqmtBIPtXKaITzm2J+OaOHbFTnKmtrZcBORYZzC4AOey//d99hl2X2x1QViIS8C3JBN+TCaodWm6+2vUUkfS/nieW9IjcD3o2GcV5bBakYBtOCa0H84qS396oBxV/mhqF44NnTnwgdt25gvHBrbf0X1dQq1t78uzB88qM99ffJHlp6enw6faoeM+yGq1qsh/9i9HxgzM9QNoe75uG6AStjJfb1WRbqEH7y1wpc/BWWXFR0joAM9w4cInL/Bj4UHLsSW+3oXrLBc9NBZ6t3Pgojcb3P8FDH+o+7OzitwBj9AAMt+CrxUfl1Lblu55QRehTORzoM8XqLDt2L4ObeBy/coBc6yHluEvdYtxoR6o1ePT02O5h8TkLue4tzhrTW2EZGjqqBswQr3oFvyXjl+9OdUtD2hyGln7c259hcAyrwHqHhq4EDFpA/KbJ8lNjfKD1ToCFipvdm00JDA1OUbR6Btwou9Ab2HpL824AjQ5tXK8m+bF4OrHhPzodEft64TGrBVWDOsoPhpP1bBWhrxWvISy1r0hIUP+4r8skMLHrm78xG8sGODQhXPdfSHkZBMMakgD9GxISBvSeHkPOIFIQeOidilHx44baRI9r5mSRmyEDSxUYBJZ3blu/xy4JnCvAfYzAL0wsdX3b8s5NVnMwIfj6+8T9KPV/l7IxHm5Jhp5z0OvBh9BE+kGCS98DAk920dCZMIVSikeHA9SJulgmhwp1bAq2ZMXfZT4B2LSAxc+QFu3ogSlwl6OWi7Ssb/0moPwnSLFGmsYPPedJdIj0qJQrgWE0MJ5JCOdEXICmjFtjmnJUA7J0tRxpRHQLUBtYA3AytxYcejGiMm4JZa46kmmLG0LrhEWBa3xcus++8A2MZDfDYZpCWdMkQKtj5nwHfcltGVFk+OFGseMJxH2qHoYWND7cnJosmJN5ku1uCnh1+H65qyTKx3Y545jAR1NEG5s6BPpdiDSG56bXcI59IlYwiKvWdVk7knrgKm+tPxb3VoCboigVyQ96CPXTshnFewlKri/oQta5l9LD8GnYEuZYx67mbHTJoqe6ZblPK0cjVCOarZnwPgJzFUVVqC1ESPOHKsWvx33pNH5Zl7erhEyxkg2xVq1lr7TdoHug6HrLIDrvzAWEyiR9/eIRfdMhLKr5fweuE21rslCEdaQRS08UPF//xMyUSUc9B0TNG8Quqbos4xMnTwz90Y+PzEHluy7tuWt5HgP/ND5vNXOHBXjLvaN2aNbYuh5A79Evm3IJvErCL6JJ23LP418rD3OPSHRTOHDEjnla/gw85sIdabECnU0BoKwUKWYS+vrz5fAfvBnTbXRwKJhj2nOjrJISkNktZevObqMVm/q5DL4SnFwGS02cm5pFninPwKqkpa1mOmKYIUieVuWOJh2nCVqyWzxf//ehzWm2Nxw9uJBQ7dIeQJnTA/KYaNePXrNFtfo7ca2MPfItOjcf/WMZelYS+paugfVBtErK9H60Ibz5bx5oBwenx4fndaUWv3kSK0pjePu32vVE4S4oAZGIvklvWZQ4W0Rs4b0UpC0Rk/7QJiajTD10yOsXjvdJsRYdyXGNhLfFkDGuto1yh6Bqz+IoV6M/ulxppzUt4kz1l2Js43EtwWcsa52jLNz4OupIMPET46w2qmqqttD2Kq7EmEbiW9jhK262jHCrvGaRirECHVXGHuvCFutth02NsJWrKMSVWsKbh08xTrZCZK+OsbSG7gQ2D5ZHRSgJJK3tspG1g4H057tH9XfH6CibEVXr/OjKbkXhfRCBYDfqOeDOWLs0nmABl3VvJn0rm5bl73OpP2tN9TkFYkJfAye/WbPftQtiMQzg4uVjCJaIvW07+CFjI1lEf6uyTEWsnm67F2lsnIJbSARW0kbWtlk6OEgY+yhA20/e3B1k8GZLoaD0auqCHeKD6S58wgk35HmwJjpNrYKCTmTxd/SeKxl8/ienF2WXefzdFk9bOTm6N5Lz546UqiqhAVciZbr3FOQY3BWIVUkVBrdJr+ZtC6H31rRcrGRhEeyyEjkXXKxo0bYURPZUVPYUbPYUQuzEywL8PxEyoQBQloib5PW7UUWe0HrokySmCrg8D78PeybkkWGzrvjVjIvuH4+FiIbUQEDqBXeyxN46LJSkY3uZbffvRqnSMV2TCAFbaXVSDlkQmfBvNq4EkHsASVZZdetcW+QpTTSOp+8YlOLgL9pYnk4ToQicvl10J4MrpMZJONJkeZyfMe6Ed+xvgA2skTfcYU8TFacvPmcsQFLZ8dr7r82tXQiP3O7dSw/voYXlO4q5vl5u6WEjcypLxqFfRNqVSHyCL4FKaFHctihVBMCjFp1f7FErbF+MBEXRsEvZLo55TW19tJ1sT+LmlpQuitTm7f2YWpolHD6sQ1TaySFsh/E0uKy2LulDZ0nkgHOmxQp25WV3aUEnW+xcHMnRJr5lluqhymm+EkWW+4491hde7Ul3ssWbV9+7YtfJA0UTQyNGXBfyVbbPA8ud74bklUw60j9YgWfilQ/I4dzraYmBmuZ2QhiKJW9qxqLdLI3h6IxR/YytzAXT1vD42MIIXVJnC4nR8cylyaJ7OZRhxZeJcCPHu2eWH2ZQFkmUJYJlGUCZZlA+fE2xcsEyvezJV4mUP6aCCsTKN8TxsoEyl8VZ2UC5XvCWZlA+ashrEygfE8IKxMoywTKMoGyTKAsEyjLBMoygbJMoCwTKMsEyjKBskygLBMoywTKMoGyTKAsEyjLBMoygbJMoHzr+KNMoCwTKD9tAiXLkUS/iumT7KzT+Cmg4tm7GScqd+cL/4UkG4arGcVOT+72h4PRhP4scnoyGTg0xcTzk2U+BzLzcGMl7XBjde+HGw8WbefceR5MR45lATfhiGNKyDjkmKsg/WbotmTQQ8ElNJZEifQE7N/XgX9k+LhXSSBnuYaE6hunwkb7FPSZfOxxRGTIPPKL8PePe2KymphYK0bAR+scevtxXAin6Q2diJrmRGpv50S+wmdgEkNlcw/RmVjQz3IliCz1U2CAaRv4kdXICV5EJGb6ELHy5h6E61FQZYr/YA2o98gntQ/sOmq5XMfxeudlE7OmVzSsTJpYMhZe0hcRy1SR/jGf/zPDjH/DR/7fA2QfErQ9hAVgol98R9I5hWWaMq5mhBds4KeJUp0oaQYcIb5mwIVtN52ZmPP5qH/5US30lx930PRnYm4HLtvZktP8/WxBxzgL44DNsuvjPeVdZqh+7nWGuODWWWeI97KTtI5vABumgB1a+LnBszXslNBZz+i3gpzt3wSirjOzGenzhQXuZgBYY/QC/KUgIkkjH65UJ0ChmfamMj+F+lCxGJtFbxiJ1dIisfpGkRjhMR6HvT9h3thLD5hkeHHgLInKwm1g17oJl16CldWVYB+fXrg3mE494KdZfesZevz3Iay2B1ceYybnbh1ywVU1LSlVPTypn6qNRkNN8LvHjcOTRv24dqQqvK8VhNAM7mETbitc+w7DEUCRgJl9i2FYh7v9roNCXwNnMmzhLkORh4SYKLFGsfsMwz42ifVFRj70nYaF9FrM/4zwzYaj4jcbRuW787sNw+F2cbvhyRss3uHlOks3wMyxzMQtgMsX+xm8pBxzcfnj6s/ujy654bCjSsOZ7olX4OYEsRyOEwezQMpa3mDWKOO8X3k4Wj2jProvYAvX6KYzLmrzl7v28CTPUlxNiU9Yi8wL0ecUu0XdWrmWfniNJk2pxn6HJHazGl4xZ9PpjyfkXwFHw4ba6R6gstmscZebgP09bgIKCIswkLYN2N/zNmAmj6JSs3YC+59rJ1Cp53Ii1c+wFVhGSkUjpbRAqXF4dHrSUJRqPWmBqqEcHldP68dqfQeB0sontAHGieA9hcKI4+SmzLSadMAw70kjnLfkkW8dVkPLMIDnOS4E3hoRE+Mi7j2jlLwRUvyl1/ekrIcPHRqtqcpiLudicNWekB9FHA7lZ+eh0Ri4qHQnkdHp3mdFwxkkShPAfO0EGXBRYgTUqKlErdE1Wb0CGJXZGHSdNqGDKCsJ1TJnP6vqMuJUZpxuDuAUxgVFpsREEgUYMFu+rxszPNBZ5WDPRwluc5pzmitr4SQ+y+l5TBQhKMMCjfMcZLfIWj48ALPjYkzSv8ZE3eHvWs9sIu2S3oNHTCEVRwtgwGnwt6KsUpyC4BLvvcgEK46DYs5u+K03mpAfRZxdFKHbnGBVi0yvQisOP5lEYfRDEPwf22IqXU7pckqXI7qcECvsd+8VLsZPznhGTjB6jZVIzZz8ZA+dc9yig6ZEJvFifFQxXo8YAd9H0PIkfi6GHAXNPKxILbzB7vVR6AbplI5NtLGOuVT/5i2e1Rn4EFu+VFtBkewhB6uqmiyUa3yqI/WAkWUTj/6JxSqYYK6D6Pv/u9RXv2COAAA=

[PSD]
ActualTwoTheta=9999
FirstUsedChannel=0
FixedPSD=0
PSDOpening=4.99171
PSDType=5

[Drive]
DriveFlags=1
DriveName=2Theta
DriveNumber=2
DriveOffset=0
OffsetIndex=0
OscillationAmplitude=0
OscillationSpeed=0
StartPosition=40.0015

[Drive]
DriveFlags=1
DriveName=Theta
DriveNumber=1
DriveOffset=0
OffsetIndex=0
OscillationAmplitude=0
OscillationSpeed=0
StartPosition=20.0007

[Drive]
DriveFlags=1
DriveName=Phi
DriveNumber=3
DriveOffset=0
OffsetIndex=0
OscillationAmplitude=0
OscillationSpeed=0
StartPosition=0

[Data]
     Angle,       PSD,
   40.0015,       651,
   40.0217,       638,
   40.0418,       592,
    40.062,       644,
   40.0822,       654,
   40.1023,       616,
   40.1225,       649,
   40.1427,       617,
   40.1628,       637,
    40.183,       579,
   40.2032,       608,
   40.2233,       634,
   40.2435,       629,
   40.2637,       655,
   40.2838,       665,
    40.304,       606,
   40.3242,       669,
   40.3444,       619,
   40.3645,       608,
   40.3847,       594,
   40.4049,       619,
    40.425,       647,
   40.4452,       679,
   40.4654,       624,
   40.4855,       619,
   40.5057,       633,
   40.5259,       586,
    40.546,       615,
   40.5662,       633,
   40.5864,       666,
   40.6065,       617,
   40.6267,       631,
   40.6469,       657,
   40.6671,       619,
   40.6872,       632,
   40.7074,       612,
   40.7276,       649,
   40.7477,       639,
   40.7679,       618,
   40.7881,       626,
   40.8082,       623,
   40.8284,       646,
   40.8486,       651,
   40.8687,       677,
   40.8889,       600,
   40.9091,       707,
   40.9292,       604,
   40.9494,       618,
   40.9696,       606,
   40.9897,       642,
   41.0099,       623,
   41.0301,       635,
   41.0503,       680,
   41.0704,       626,
   41.0906,       620,
   41.1108,       639,
   41.1309,       642,
   41.1511,       592,
   41.1713,       646,
   41.1914,       621,
   41.2116,       648,
   41.2318,       641,
   41.2519,       643,
   41.2721,       653,
   41.2923,       675,
   41.3124,       631,
   41.3326,       624,
   41.3528,       635,
   41.3729,       619,
   41.3931,       613,
   41.4133,       639,
   41.4335,       679,
   41.4536,       596,
   41.4738,       626,
    41.494,       665,
   41.5141,       671,
   41.5343,       624,
   41.5545,       673,
   41.5746,       707,
   41.5948,       636,
    41.615,       665,
   41.6351,       716,
   41.6553,       671,
   41.6755,       600,
   41.6956,       636,
   41.7158,       665,
    41.736,       741,
   41.7562,       691,
   41.7763,       721,
   41.7965,       746,
   41.8167,       738,
   41.8368,       718,
    41.857,       765,
   41.8772,       716,
   41.8973,       745,
   41.9175,       762,
   41.9377,       730,
   41.9578,       781,
    41.978,       772,
   41.9982,       757,
   42.0183,       753,
   42.0385,       794,
   42.0587,       808,
   42.0788,       771,
    42.099,       760,
   42.1192,       802,
   42.1394,       766,
   42.1595,       784,
   42.1797,       759,
   42.1999,       813,
     42.22,       779,
   42.2402,       750,
   42.2604,       797,
   42.2805,       804,
   42.3007,       818,
   42.3209,       860,
    42.341,       799,
   42.3612,       870,
   42.3814,       786,
   42.4015,       807,
   42.4217,       841,
   42.4419,       827,
    42.462,       805,
   42.4822,       810,
   42.5024,       781,
   42.5226,       906,
   42.5427,       793,
   42.5629,       812,
   42.5831,       880,
   42.6032,       833,
   42.6234,       856,
   42.6436,       880,
   42.6637,       855,
   42.6839,       840,
   42.7041,       896,
   42.7242,       871,
   42.7444,       913,
   42.7646,      1004,
   42.7847,       948,
   42.8049,       969,
   42.8251,      1053,
   42.8453,      1028,
   42.8654,      1150,
   42.8856,      1192,
   42.9058,      1255,
   42.9259,      1332,
   42.9461,      1353,
   42.9663,      1413,
   42.9864,      1583,
   43.0066,      1588,
   43.0268,      1636,
   43.0469,      1853,
   43.0671,      2042,
   43.0873,      2251,
   43.1074,      2502,
   43.1276,      2721,
   43.1478,      3113,
   43.1679,      3455,
   43.1881,      4117,
   43.2083,      5032,
   43.2285,      6939,
   43.2486,     11328,
   43.2688,     23303,
    43.289,     44628,
   43.3091,     54282,
   43.3293,     34902,
   43.3495,     17328,
   43.3696,     13617,
   43.3898,     18973,
     43.41,     28328,
   43.4301,     26092,
   43.4503,     14517,
   43.4705,      7417,
   43.4906,      4833,
   43.5108,      3882,
    43.531,      3107,
   43.5511,      2887,
   43.5713,      2461,
   43.5915,      2253,
   43.6117,      2010,
   43.6318,      1774,
    43.652,      1669,
   43.6722,      1621,
   43.6923,      1535,
   43.7125,      1349,
   43.7327,      1318,
   43.7528,      1266,
    43.773,      1153,
   43.7932,      1170,
   43.8133,      1037,
   43.8335,      1022,
   43.8537,       986,
   43.8738,       956,
    43.894,       996,
   43.9142,       969,
   43.9344,       962,
   43.9545,       965,
   43.9747,       912,
   43.9949,       904,
    44.015,       841,
   44.0352,       917,
   44.0554,       922,
   44.0755,       869,
   44.0957,       876,
   44.1159,       911,
    44.136,       817,
   44.1562,       800,
   44.1764,       838,
   44.1965,       844,
   44.2167,       835,
   44.2369,       820,
    44.257,       805,
   44.2772,       826,
   44.2974,       834,
   44.3176,       825,
   44.3377,       750,
   44.3579,       791,
   44.3781,       742,
   44.3982,       788,
   44.4184,       831,
   44.4386,       792,
   44.4587,       768,
   44.4789,       776,
   44.4991,       785,
   44.5192,       729,
   44.5394,       789,
   44.5596,       729,
   44.5797,       734,
   44.5999,       778,
   44.6201,       726,
   44.6402,       735,
   44.6604,       752,
   44.6806,       682,
   44.7008,       691,
   44.7209,       705,
   44.7411,       742,
   44.7613,       761,
   44.7814,       745,
   44.8016,       753,
   44.8218,       714,
   44.8419,       736,
   44.8621,       725,
   44.8823,       771,
   44.9024,       765,
   44.9226,       719,
   44.9428,       694,
   44.9629,       742,
   44.9831,       718,
   45.0033,       739,
   45.0235,       718,
   45.0436,       698,
   45.0638,       770,
    45.084,       724,
   45.1041,       744,
   45.1243,       706,
   45.1445,       732,
   45.1646,       729,
   45.1848,       758,
    45.205,       715,
   45.2251,       745,
   45.2453,       767,
   45.2655,       745,
   45.2856,       761,
   45.3058,       741,
    45.326,       740,
   45.3461,       729,
   45.3663,       693,
   45.3865,       727,
   45.4067,       725,
   45.4268,       728,
    45.447,       740,
   45.4672,       717,
   45.4873,       663,
   45.5075,       689,
   45.5277,       723,
   45.5478,       719,
    45.568,       778,
   45.5882,       702,
   45.6083,       739,
   45.6285,       732,
   45.6487,       691,
   45.6688,       734,
    45.689,       726,
   45.7092,       715,
   45.7294,       744,
   45.7495,       682,
   45.7697,       708,
   45.7899,       669,
     45.81,       718,
   45.8302,       736,
   45.8504,       768,
   45.8705,       698,
   45.8907,       744,
   45.9109,       745,
    45.931,       691,
   45.9512,       707,
   45.9714,       712,
   45.9915,       653,
   46.0117,       710,
   46.0319,       690,
    46.052,       651,
   46.0722,       697,
   46.0924,       700,
   46.1126,       642,
   46.1327,       662,
   46.1529,       690,
   46.1731,       671,
   46.1932,       675,
   46.2134,       683,
   46.2336,       720,
   46.2537,       649,
   46.2739,       689,
   46.2941,       716,
   46.3142,       697,
   46.3344,       677,
   46.3546,       672,
   46.3747,       680,
   46.3949,       699,
   46.4151,       703,
   46.4352,       659,
   46.4554,       688,
   46.4756,       674,
   46.4958,       655,
   46.5159,       693,
   46.5361,       668,
   46.5563,       705,
   46.5764,       671,
   46.5966,       684,
   46.6168,       677,
   46.6369,       632,
   46.6571,       703,
   46.6773,       640,
   46.6974,       645,
   46.7176,       645,
   46.7378,       683,
   46.7579,       706,
   46.7781,       687,
   46.7983,       686,
   46.8185,       679,
   46.8386,       681,
   46.8588,       677,
    46.879,       687,
   46.8991,       687,
   46.9193,       697,
   46.9395,       679,
   46.9596,       701,
   46.9798,       641,
        47,       712,
   47.0201,       665,
   47.0403,       677,
   47.0605,       651,
   47.0806,       700,
   47.1008,       733,
    47.121,       667,
   47.1411,       707,
   47.1613,       695,
   47.1815,       712,
   47.2017,       723,
   47.2218,       674,
    47.242,       682,
   47.2622,       694,
   47.2823,       678,
   47.3025,       647,
   47.3227,       680,
   47.3428,       697,
    47.363,       685,
   47.3832,       671,
   47.4033,       639,
   47.4235,       678,
   47.4437,       677,
   47.4638,       670,
    47.484,       683,
   47.5042,       684,
   47.5243,       673,
   47.5445,       691,
   47.5647,       670,
   47.5849,       720,
    47.605,       667,
   47.6252,       669,
   47.6454,       663,
   47.6655,       729,
   47.6857,       649,
   47.7059,       658,
    47.726,       706,
   47.7462,       656,
   47.7664,       633,
   47.7865,       680,
   47.8067,       662,
   47.8269,       644,
    47.847,       664,
   47.8672,       661,
   47.8874,       661,
   47.9076,       656,
   47.9277,       645,
   47.9479,       699,
   47.9681,       625,
   47.9882,       633,
   48.0084,       642,
   48.0286,       678,
   48.0487,       706,
   48.0689,       698,
   48.0891,       652,
   48.1092,       664,
   48.1294,       689,
   48.1496,       653,
   48.1697,       687,
   48.1899,       671,
   48.2101,       714,
   48.2302,       701,
   48.2504,       673,
   48.2706,       664,
   48.2908,       642,
   48.3109,       664,
   48.3311,       714,
   48.3513,       690,
   48.3714,       726,
   48.3916,       693,
   48.4118,       647,
   48.4319,       640,
   48.4521,       600,
   48.4723,       696,
   48.4924,       677,
   48.5126,       686,
   48.5328,       650,
   48.5529,       692,
   48.5731,       743,
   48.5933,       684,
   48.6134,       678,
   48.6336,       695,
   48.6538,       696,
    48.674,       722,
   48.6941,       735,
   48.7143,       668,
   48.7345,       710,
   48.7546,       690,
   48.7748,       687,
    48.795,       706,
   48.8151,       705,
   48.8353,       698,
   48.8555,       657,
   48.8756,       694,
   48.8958,       736,
    48.916,       691,
   48.9361,       668,
   48.9563,       658,
   48.9765,       703,
   48.9967,       681,
   49.0168,       688,
    49.037,       729,
   49.0572,       712,
   49.0773,       695,
   49.0975,       718,
   49.1177,       734,
   49.1378,       677,
    49.158,       725,
   49.1782,       688,
   49.1983,       672,
   49.2185,       697,
   49.2387,       698,
   49.2588,       693,
    49.279,       682,
   49.2992,       729,
   49.3193,       726,
   49.3395,       732,
   49.3597,       689,
   49.3799,       728,
      49.4,       750,
   49.4202,       749,
   49.4404,       694,
   49.4605,       772,
   49.4807,       749,
   49.5009,       746,
    49.521,       758,
   49.5412,       740,
   49.5614,       741,
   49.5815,       726,
   49.6017,       750,
   49.6219,       732,
    49.642,       736,
   49.6622,       737,
   49.6824,       736,
   49.7025,       784,
   49.7227,       747,
   49.7429,       771,
   49.7631,       724,
   49.7832,       779,
   49.8034,       784,
   49.8236,       784,
   49.8437,       802,
   49.8639,       807,
   49.8841,       807,
   49.9042,       823,
   49.9244,       873,
   49.9446,       869,
   49.9647,       887,
   49.9849,       920,
   50.0051,       938,
   50.0252,       963,
   50.0454,      1042,
   50.0656,      1105,
   50.0858,      1006,
   50.1059,      1126,
   50.1261,      1115,
   50.1463,      1148,
   50.1664,      1226,
   50.1866,      1374,
   50.2068,      1441,
   50.2269,      1476,
   50.2471,      1499,
   50.2673,      1579,
   50.2874,      1676,
   50.3076,      1914,
   50.3278,      2368,
   50.3479,      2773,
   50.3681,      3706,
   50.3883,      5635,
   50.4084,      8713,
   50.4286,     11428,
   50.4488,     10783,
    50.469,      7745,
   50.4891,      5312,
   50.5093,      4502,
   50.5295,      4832,
   50.5496,      6078,
   50.5698,      6758,
     50.59,      5689,
   50.6101,      4126,
   50.6303,      2777,
   50.6505,      2066,
   50.6706,      1832,
   50.6908,      1553,
    50.711,      1467,
   50.7311,      1358,
   50.7513,      1345,
   50.7715,      1155,
   50.7917,      1192,
   50.8118,      1025,
    50.832,      1001,
   50.8522,       952,
   50.8723,       950,
   50.8925,       932,
   50.9127,       867,
   50.9328,       908,
    50.953,       844,
   50.9732,       883,
   50.9933,       801,
   51.0135,       806,
   51.0337,       789,
   51.0538,       786,
    51.074,       794,
   51.0942,       746,
   51.1143,       757,
   51.1345,       787,
   51.1547,       715,
   51.1749,       741,
    51.195,       762,
   51.2152,       720,
   51.2354,       730,
   51.2555,       713,
   51.2757,       691,
   51.2959,       659,
    51.316,       730,
   51.3362,       737,
   51.3564,       688,
   51.3765,       698,
   51.3967,       702,
   51.4169,       669,
    51.437,       703,
   51.4572,       678,
   51.4774,       711,
   51.4975,       720,
   51.5177,       687,
   51.5379,       659,
   51.5581,       624,
   51.5782,       700,
   51.5984,       688,
   51.6186,       695,
   51.6387,       664,
   51.6589,       681,
   51.6791,       654,
   51.6992,       684,
   51.7194,       666,
   51.7396,       681,
   51.7597,       661,
   51.7799,       660,
   51.8001,       670,
   51.8202,       662,
   51.8404,       674,
   51.8606,       665,
   51.8808,       630,
   51.9009,       691,
   51.9211,       676,
   51.9413,       681,
   51.9614,       675,
   51.9816,       682,
   52.0018,       654,
   52.0219,       677,
   52.0421,       643,
   52.0623,       636,
   52.0824,       639,
   52.1026,       662,
   52.1228,       686,
   52.1429,       685,
   52.1631,       679,
   52.1833,       668,
   52.2034,       703,
   52.2236,       635,
   52.2438,       634,
    52.264,       669,
   52.2841,       646,
   52.3043,       672,
   52.3245,       643,
   52.3446,       655,
   52.3648,       664,
    52.385,       661,
   52.4051,       656,
   52.4253,       637,
   52.4455,       658,
   52.4656,       663,
   52.4858,       627,
    52.506,       639,
   52.5261,       720,
   52.5463,       634,
   52.5665,       646,
   52.5866,       703,
   52.6068,       705,
    52.627,       652,
   52.6472,       636,
   52.6673,       619,
   52.6875,       686,
   52.7077,       637,
   52.7278,       657,
    52.748,       659,
   52.7682,       708,
   52.7883,       631,
   52.8085,       639,
   52.8287,       665,
   52.8488,       653,
    52.869,       681,
   52.8892,       642,
   52.9093,       628,
   52.9295,       672,
   52.9497,       630,
   52.9699,       665,
     52.99,       666,
   53.0102,       609,
   53.0304,       638,
   53.0505,       686,
   53.0707,       626,
   53.0909,       609,
    53.111,       653,
   53.1312,       599,
   53.1514,       683,
   53.1715,       689,
   53.1917,       616,
   53.2119,       643,
    53.232,       678,
   53.2522,       634,
   53.2724,       650,
   53.2925,       650,
   53.3127,       660,
   53.3329,       675,
   53.3531,       630,
   53.3732,       674,
   53.3934,       646,
   53.4136,       627,
   53.4337,       639,
   53.4539,       677,
   53.4741,       623,
   53.4942,       592,
   53.5144,       606,
   53.5346,       625,
   53.5547,       642,
   53.5749,       663,
   53.5951,       641,
   53.6152,       665,
   53.6354,       669,
   53.6556,       644,
   53.6757,       631,
   53.6959,       604,
   53.7161,       665,
   53.7363,       646,
   53.7564,       645,
   53.7766,       653,
   53.7968,       635,
   53.8169,       626,
   53.8371,       659,
   53.8573,       634,
   53.8774,       642,
   53.8976,       640,
   53.9178,       653,
   53.9379,       648,
   53.9581,       662,
   53.9783,       670,
   53.9984,       632,
   54.0186,       634,
   54.0388,       650,
    54.059,       619,
   54.0791,       611,
   54.0993,       649,
   54.1195,       664,
   54.1396,       668,
   54.1598,       627,
     54.18,       628,
   54.2001,       622,
   54.2203,       629,
   54.2405,       599,
   54.2606,       668,
   54.2808,       666,
    54.301,       654,
   54.3211,       619,
   54.3413,       620,
   54.3615,       640,
   54.3816,       619,
   54.4018,       620,
    54.422,       629,
   54.4422,       657,
   54.4623,       581,
   54.4825,       629,
   54.5027,       625,
   54.5228,       644,
    54.543,       649,
   54.5632,       642,
   54.5833,       624,
   54.6035,       631,
   54.6237,       622,
   54.6438,       621,
    54.664,       651,
   54.6842,       659,
   54.7043,       616,
   54.7245,       612,
   54.7447,       654,
   54.7648,       670,
    54.785,       684,
   54.8052,       672,
   54.8254,       630,
   54.8455,       658,
   54.8657,       624,
   54.8859,       639,
    54.906,       634,
   54.9262,       597,
   54.9464,       605,
   54.9665,       616,
   54.9867,       603,
   55.0069,       658,
    55.027,       632,
   55.0472,       614,
   55.0674,       621,
   55.0875,       606,
   55.1077,       633,
   55.1279,       616,
   55.1481,       629,
   55.1682,       615,
   55.1884,       631,
   55.2086,       581,
   55.2287,       608,
   55.2489,       645,
   55.2691,       642,
   55.2892,       653,
   55.3094,       633,
   55.3296,       644,
   55.3497,       647,
   55.3699,       656,
   55.3901,       645,
   55.4102,       627,
   55.4304,       603,
   55.4506,       618,
   55.4707,       630,
   55.4909,       579,
   55.5111,       610,
   55.5313,       639,
   55.5514,       657,
   55.5716,       637,
   55.5918,       588,
   55.6119,       599,
   55.6321,       617,
   55.6523,       656,
   55.6724,       628,
   55.6926,       631,
   55.7128,       589,
   55.7329,       620,
   55.7531,       605,
   55.7733,       580,
   55.7934,       596,
   55.8136,       655,
   55.8338,       600,
    55.854,       653,
   55.8741,       652,
   55.8943,       646,
   55.9145,       610,
   55.9346,       597,
   55.9548,       624,
    55.975,       611,
   55.9951,       616,
   56.0153,       600,
   56.0355,       639,
   56.0556,       628,
   56.0758,       565,
    56.096,       626,
   56.1161,       605,
   56.1363,       570,
   56.1565,       631,
   56.1766,       591,
   56.1968,       609,
    56.217,       616,
   56.2372,       579,
   56.2573,       642,
   56.2775,       599,
   56.2977,       591,
   56.3178,       623,
    56.338,       633,
   56.3582,       605,
   56.3783,       616,
   56.3985,       615,
   56.4187,       632,
   56.4388,       568,
    56.459,       666,
   56.4792,       603,
   56.4993,       607,
   56.5195,       589,
   56.5397,       614,
   56.5598,       610,
     56.58,       601,
   56.6002,       603,
   56.6204,       621,
   56.6405,       620,
   56.6607,       625,
   56.6809,       620,
    56.701,       618,
   56.7212,       609,
   56.7414,       601,
   56.7615,       647,
   56.7817,       613,
   56.8019,       616,
    56.822,       624,
   56.8422,       613,
   56.8624,       605,
   56.8825,       644,
   56.9027,       590,
   56.9229,       653,
   56.9431,       618,
   56.9632,       597,
   56.9834,       631,
   57.0036,       593,
   57.0237,       607,
   57.0439,       648,
   57.0641,       590,
   57.0842,       622,
   57.1044,       600,
   57.1246,       639,
   57.1447,       625,
   57.1649,       641,
   57.1851,       616,
   57.2052,       595,
   57.2254,       605,
   57.2456,       604,
   57.2657,       623,
   57.2859,       621,
   57.3061,       660,
   57.3263,       628,
   57.3464,       626,
   57.3666,       620,
   57.3868,       639,
   57.4069,       635,
   57.4271,       642,
   57.4473,       605,
   57.4674,       604,
   57.4876,       630,
   57.5078,       618,
   57.5279,       616,
   57.5481,       665,
   57.5683,       626,
   57.5884,       637,
   57.6086,       595,
   57.6288,       673,
   57.6489,       581,
   57.6691,       629,
   57.6893,       639,
   57.7095,       623,
   57.7296,       624,
   57.7498,       620,
     57.77,       631,
   57.7901,       633,
   57.8103,       599,
   57.8305,       610,
   57.8506,       587,
   57.8708,       615,
    57.891,       642,
   57.9111,       671,
   57.9313,       649,
   57.9515,       626,
   57.9716,       631,
   57.9918,       620,
    58.012,       645,
   58.0322,       666,
   58.0523,       632,
   58.0725,       662,
   58.0927,       578,
   58.1128,       613,
    58.133,       591,
   58.1532,       586,
   58.1733,       587,
   58.1935,       620,
   58.2137,       582,
   58.2338,       624,
    58.254,       573,
   58.2742,       636,
   58.2943,       613,
   58.3145,       601,
   58.3347,       613,
   58.3548,       639,
    58.375,       632,
   58.3952,       561,
   58.4154,       623,
   58.4355,       617,
   58.4557,       657,
   58.4759,       590,
    58.496,       615,
   58.5162,       649,
   58.5364,       592,
   58.5565,       564,
   58.5767,       557,
   58.5969,       572,
    58.617,       594,
   58.6372,       608,
   58.6574,       611,
   58.6775,       633,
   58.6977,       590,
   58.7179,       596,
    58.738,       613,
   58.7582,       587,
   58.7784,       593,
   58.7986,       570,
   58.8187,       603,
   58.8389,       586,
   58.8591,       630,
   58.8792,       642,
   58.8994,       649,
   58.9196,       636,
   58.9397,       594,
   58.9599,       607,
   58.9801,       628,
   59.0002,       575,
   59.0204,       571,
   59.0406,       628,
   59.0607,       579,
   59.0809,       662,
   59.1011,       585,
   59.1213,       629,
   59.1414,       654,
   59.1616,       596,
   59.1818,       610,
   59.2019,       550,
   59.2221,       569,
   59.2423,       616,
   59.2624,       645,
   59.2826,       599,
   59.3028,       621,
   59.3229,       625,
   59.3431,       609,
   59.3633,       584,
   59.3834,       595,
   59.4036,       599,
   59.4238,       605,
   59.4439,       643,
   59.4641,       620,
   59.4843,       623,
   59.5045,       642,
   59.5246,       621,
   59.5448,       624,
    59.565,       611,
   59.5851,       639,
   59.6053,       599,
   59.6255,       662,
   59.6456,       622,
   59.6658,       636,
    59.686,       579,
   59.7061,       617,
   59.7263,       619,
   59.7465,       608,
   59.7666,       615,
   59.7868,       634,
    59.807,       606,
   59.8271,       604,
   59.8473,       609,
   59.8675,       578,
   59.8877,       635,
   59.9078,       583,
    59.928,       646,
   59.9482,       613,
   59.9683,       577,
   59.9885,       605,
   60.0087,       586,
   60.0288,       628,
    60.049,       607,
   60.0692,       647,
   60.0893,       580,
   60.1095,       616,
   60.1297,       644,
   60.1498,       635,
     60.17,       590,
   60.1902,       628,
   60.2104,       682,
   60.2305,       606,
   60.2507,       584,
   60.2709,       626,
    60.291,       590,
   60.3112,       623,
   60.3314,       630,
   60.3515,       605,
   60.3717,       611,
   60.3919,       606,
    60.412,       608,
   60.4322,       626,
   60.4524,       586,
   60.4725,       588,
   60.4927,       610,
   60.5129,       603,
    60.533,       631,
   60.5532,       590,
   60.5734,       588,
   60.5936,       584,
   60.6137,       620,
   60.6339,       635,
   60.6541,       616,
   60.6742,       618,
   60.6944,       611,
   60.7146,       596,
   60.7347,       581,
   60.7549,       608,
   60.7751,       579,
   60.7952,       570,
   60.8154,       620,
   60.8356,       634,
   60.8557,       591,
   60.8759,       588,
   60.8961,       622,
   60.9163,       622,
   60.9364,       602,
   60.9566,       633,
   60.9768,       622,
   60.9969,       563,
   61.0171,       605,
   61.0373,       619,
   61.0574,       571,
   61.0776,       572,
   61.0978,       579,
   61.1179,       624,
   61.1381,       632,
   61.1583,       624,
   61.1784,       573,
   61.1986,       626,
   61.2188,       597,
   61.2389,       614,
   61.2591,       601,
   61.2793,       642,
   61.2995,       611,
   61.3196,       611,
   61.3398,       585,
     61.36,       600,
   61.3801,       612,
   61.4003,       626,
   61.4205,       599,
   61.4406,       601,
   61.4608,       646,
    61.481,       573,
   61.5011,       598,
   61.5213,       598,
   61.5415,       600,
   61.5616,       585,
   61.5818,       584,
    61.602,       600,
   61.6221,       569,
   61.6423,       608,
   61.6625,       575,
   61.6827,       594,
   61.7028,       630,
    61.723,       611,
   61.7432,       589,
   61.7633,       592,
   61.7835,       604,
   61.8037,       560,
   61.8238,       618,
    61.844,       591,
   61.8642,       638,
   61.8843,       613,
   61.9045,       668,
   61.9247,       587,
   61.9448,       616,
    61.965,       635,
   61.9852,       613,
   62.0054,       625,
   62.0255,       599,
   62.0457,       623,
   62.0659,       569,
    62.086,       576,
   62.1062,       594,
   62.1264,       623,
   62.1465,       608,
   62.1667,       622,
   62.1869,       597,
    62.207,       588,
   62.2272,       625,
   62.2474,       641,
   62.2675,       654,
   62.2877,       590,
   62.3079,       584,
    62.328,       623,
   62.3482,       600,
   62.3684,       645,
   62.3886,       610,
   62.4087,       576,
   62.4289,       601,
   62.4491,       621,
   62.4692,       588,
   62.4894,       627,
   62.5096,       581,
   62.5297,       589,
   62.5499,       600,
   62.5701,       595,
   62.5902,       613,
   62.6104,       647,
   62.6306,       565,
   62.6507,       624,
   62.6709,       607,
   62.6911,       612,
   62.7112,       612,
   62.7314,       621,
   62.7516,       609,
   62.7718,       599,
   62.7919,       584,
   62.8121,       637,
   62.8323,       612,
   62.8524,       594,
   62.8726,       600,
   62.8928,       562,
   62.9129,       614,
   62.9331,       584,
   62.9533,       581,
   62.9734,       621,
   62.9936,       616,
   63.0138,       573,
   63.0339,       598,
   63.0541,       610,
   63.0743,       625,
   63.0945,       620,
   63.1146,       671,
   63.1348,       620,
    63.155,       605,
   63.1751,       652,
   63.1953,       621,
   63.2155,       619,
   63.2356,       626,
   63.2558,       634,
    63.276,       577,
   63.2961,       584,
   63.3163,       619,
   63.3365,       630,
   63.3566,       580,
   63.3768,       631,
    63.397,       598,
   63.4171,       591,
   63.4373,       640,
   63.4575,       584,
   63.4777,       551,
   63.4978,       608,
    63.518,       590,
   63.5382,       590,
   63.5583,       620,
   63.5785,       618,
   63.5987,       600,
   63.6188,       573,
    63.639,       636,
   63.6592,       608,
   63.6793,       609,
   63.6995,       595,
   63.7197,       586,
   63.7398,       574,
     63.76,       596,
   63.7802,       639,
   63.8003,       577,
   63.8205,       622,
   63.8407,       542,
   63.8609,       634,
    63.881,       583,
   63.9012,       623,
   63.9214,       615,
   63.9415,       588,
   63.9617,       585,
   63.9819,       613,
    64.002,       575,
   64.0222,       575,
   64.0424,       587,
   64.0625,       634,
   64.0827,       598,
   64.1029,       575,
    64.123,       628,
   64.1432,       598,
   64.1634,       551,
   64.1836,       628,
   64.2037,       604,
   64.2239,       625,
   64.2441,       618,
   64.2642,       608,
   64.2844,       627,
   64.3046,       600,
   64.3247,       587,
   64.3449,       599,
   64.3651,       610,
   64.3852,       573,
   64.4054,       598,
   64.4256,       622,
   64.4457,       638,
   64.4659,       590,
   64.4861,       655,
   64.5062,       619,
   64.5264,       589,
   64.5466,       618,
   64.5668,       556,
   64.5869,       611,
   64.6071,       607,
   64.6273,       593,
   64.6474,       592,
   64.6676,       561,
   64.6878,       581,
   64.7079,       604,
   64.7281,       606,
   64.7483,       578,
   64.7684,       590,
   64.7886,       663,
   64.8088,       554,
   64.8289,       626,
   64.8491,       585,
   64.8693,       639,
   64.8894,       599,
   64.9096,       591,
   64.9298,       581,
     64.95,       573,
   64.9701,       602,
   64.9903,       540,
   65.0105,       622,
   65.0306,       592,
   65.0508,       543,
    65.071,       595,
   65.0911,       649,
   65.1113,       559,
   65.1315,       610,
   65.1516,       583,
   65.1718,       571,
    65.192,       623,
   65.2121,       604,
   65.2323,       559,
   65.2525,       630,
   65.2727,       603,
   65.2928,       585,
    65.313,       628,
   65.3332,       593,
   65.3533,       662,
   65.3735,       623,
   65.3937,       621,
   65.4138,       621,
    65.434,       617,
   65.4542,       625,
   65.4743,       611,
   65.4945,       615,
   65.5147,       630,
   65.5348,       531,
    65.555,       606,
   65.5752,       638,
   65.5953,       600,
   65.6155,       635,
   65.6357,       605,
   65.6559,       587,
    65.676,       594,
   65.6962,       619,
   65.7164,       620,
   65.7365,       634,
   65.7567,       619,
   65.7769,       604,
    65.797,       624,
   65.8172,       616,
   65.8374,       560,
   65.8575,       591,
   65.8777,       599,
   65.8979,       614,
    65.918,       615,
   65.9382,       595,
   65.9584,       624,
   65.9786,       629,
   65.9987,       611,
   66.0189,       597,
   66.0391,       629,
   66.0592,       607,
   66.0794,       612,
   66.0996,       573,
   66.1197,       620,
   66.1399,       631,
   66.1601,       623,
   66.1802,       607,
   66.2004,       601,
   66.2206,       609,
   66.2407,       628,
   66.2609,       598,
   66.2811,       595,
   66.3012,       594,
   66.3214,       618,
   66.3416,       554,
   66.3618,       590,
   66.3819,       565,
   66.4021,       598,
   66.4223,       548,
   66.4424,       591,
   66.4626,       579,
   66.4828,       595,
   66.5029,       601,
   66.5231,       626,
   66.5433,       601,
   66.5634,       592,
   66.5836,       606,
   66.6038,       613,
   66.6239,       603,
   66.6441,       635,
   66.6643,       602,
   66.6844,       661,
   66.7046,       599,
   66.7248,       616,
    66.745,       607,
   66.7651,       556,
   66.7853,       570,
   66.8055,       596,
   66.8256,       632,
   66.8458,       591,
    66.866,       552,
   66.8861,       619,
   66.9063,       583,
   66.9265,       577,
   66.9466,       577,
   66.9668,       618,
    66.987,       617,
   67.0071,       621,
   67.0273,       584,
   67.0475,       612,
   67.0677,       642,
   67.0878,       598,
    67.108,       580,
   67.1282,       594,
   67.1483,       599,
   67.1685,       601,
   67.1887,       590,
   67.2088,       613,
    67.229,       614,
   67.2492,       603,
   67.2693,       577,
   67.2895,       590,
   67.3097,       604,
   67.3298,       548,
     67.35,       593,
   67.3702,       608,
   67.3903,       625,
   67.4105,       621,
   67.4307,       580,
   67.4509,       612,
    67.471,       594,
   67.4912,       614,
   67.5114,       561,
   67.5315,       597,
   67.5517,       604,
   67.5719,       620,
    67.592,       589,
   67.6122,       605,
   67.6324,       633,
   67.6525,       592,
   67.6727,       620,
   67.6929,       585,
    67.713,       610,
   67.7332,       597,
   67.7534,       622,
   67.7735,       600,
   67.7937,       589,
   67.8139,       572,
   67.8341,       636,
   67.8542,       566,
   67.8744,       617,
   67.8946,       617,
   67.9147,       615,
   67.9349,       600,
   67.9551,       592,
   67.9752,       581,
   67.9954,       611,
   68.0156,       569,
   68.0357,       624,
   68.0559,       591,
   68.0761,       570,
   68.0962,       600,
   68.1164,       618,
   68.1366,       553,
   68.1568,       564,
   68.1769,       593,
   68.1971,       585,
   68.2173,       605,
   68.2374,       573,
   68.2576,       645,
   68.2778,       593,
   68.2979,       612,
   68.3181,       611,
   68.3383,       590,
   68.3584,       569,
   68.3786,       581,
   68.3988,       656,
   68.4189,       633,
   68.4391,       607,
   68.4593,       594,
   68.4794,       571,
   68.4996,       622,
   68.5198,       580,
     68.54,       602,
   68.5601,       623,
   68.5803,       551,
   68.6005,       563,
   68.6206,       601,
   68.6408,       564,
    68.661,       643,
   68.6811,       531,
   68.7013,       582,
   68.7215,       574,
   68.7416,       604,
   68.7618,       580,
    68.782,       619,
   68.8021,       630,
   68.8223,       558,
   68.8425,       558,
   68.8626,       623,
   68.8828,       625,
    68.903,       579,
   68.9232,       614,
   68.9433,       642,
   68.9635,       581,
   68.9837,       566,
   69.0038,       581,
    69.024,       563,
   69.0442,       585,
   69.0643,       600,
   69.0845,       617,
   69.1047,       595,
   69.1248,       605,
    69.145,       593,
   69.1652,       589,
   69.1853,       626,
   69.2055,       547,
   69.2257,       600,
   69.2459,       604,
    69.266,       605,
   69.2862,       540,
   69.3064,       576,
   69.3265,       582,
   69.3467,       565,
   69.3669,       612,
    69.387,       627,
   69.4072,       570,
   69.4274,       582,
   69.4475,       606,
   69.4677,       581,
   69.4879,       591,
    69.508,       654,
   69.5282,       586,
   69.5484,       593,
   69.5685,       596,
   69.5887,       574,
   69.6089,       558,
   69.6291,       626,
   69.6492,       586,
   69.6694,       595,
   69.6896,       641,
   69.7097,       571,
   69.7299,       562,
   69.7501,       593,
   69.7702,       565,
   69.7904,       627,
   69.8106,       580,
   69.8307,       552,
   69.8509,       586,
   69.8711,       591,
   69.8912,       590,
   69.9114,       642,
   69.9316,       629,
   69.9517,       603,
   69.9719,       604,
   69.9921,       615,
   70.0123,       594,
   70.0324,       585,
   70.0526,       602,
   70.0728,       612,
   70.0929,       586,
   70.1131,       574,
   70.1333,       606,
   70.1534,       603,
   70.1736,       623,
   70.1938,       601,
   70.2139,       624,
   70.2341,       603,
   70.2543,       643,
   70.2744,       603,
   70.2946,       639,
   70.3148,       609,
    70.335,       599,
   70.3551,       588,
   70.3753,       613,
   70.3955,       607,
   70.4156,       586,
   70.4358,       603,
    70.456,       617,
   70.4761,       528,
   70.4963,       625,
   70.5165,       602,
   70.5366,       601,
   70.5568,       578,
    70.577,       607,
   70.5971,       592,
   70.6173,       602,
   70.6375,       594,
   70.6576,       579,
   70.6778,       579,
    70.698,       601,
   70.7182,       603,
   70.7383,       638,
   70.7585,       587,
   70.7787,       630,
   70.7988,       580,
    70.819,       590,
   70.8392,       575,
   70.8593,       609,
   70.8795,       598,
   70.8997,       597,
   70.9198,       545,
     70.94,       578,
   70.9602,       597,
   70.9803,       574,
   71.0005,       603,
   71.0207,       567,
   71.0409,       574,
    71.061,       577,
   71.0812,       589,
   71.1014,       563,
   71.1215,       558,
   71.1417,       627,
   71.1619,       633,
    71.182,       623,
   71.2022,       582,
   71.2224,       653,
   71.2425,       586,
   71.2627,       659,
   71.2829,       607,
    71.303,       601,
   71.3232,       607,
   71.3434,       594,
   71.3635,       580,
   71.3837,       605,
   71.4039,       616,
   71.4241,       628,
   71.4442,       590,
   71.4644,       589,
   71.4846,       593,
   71.5047,       603,
   71.5249,       626,
   71.5451,       600,
   71.5652,       589,
   71.5854,       616,
   71.6056,       609,
   71.6257,       647,
   71.6459,       625,
   71.6661,       605,
   71.6862,       618,
   71.7064,       639,
   71.7266,       621,
   71.7467,       591,
   71.7669,       622,
   71.7871,       637,
   71.8073,       641,
   71.8274,       621,
   71.8476,       605,
   71.8678,       588,
   71.8879,       588,
   71.9081,       660,
   71.9283,       611,
   71.9484,       601,
   71.9686,       640,
   71.9888,       590,
   72.0089,       618,
   72.0291,       607,
   72.0493,       642,
   72.0694,       619,
   72.0896,       595,
   72.1098,       603,
     72.13,       609,
   72.1501,       627,
   72.1703,       630,
   72.1905,       654,
   72.2106,       609,
   72.2308,       603,
    72.251,       610,
   72.2711,       616,
   72.2913,       620,
   72.3115,       663,
   72.3316,       627,
   72.3518,       618,
    72.372,       639,
   72.3921,       601,
   72.4123,       637,
   72.4325,       608,
   72.4526,       629,
   72.4728,       636,
    72.493,       637,
   72.5132,       596,
   72.5333,       667,
   72.5535,       618,
   72.5737,       593,
   72.5938,       625,
    72.614,       621,
   72.6342,       629,
   72.6543,       622,
   72.6745,       613,
   72.6947,       583,
   72.7148,       608,
    72.735,       630,
   72.7552,       614,
   72.7753,       647,
   72.7955,       573,
   72.8157,       647,
   72.8358,       624,
    72.856,       617,
   72.8762,       588,
   72.8964,       651,
   72.9165,       575,
   72.9367,       676,
   72.9569,       602,
    72.977,       643,
   72.9972,       663,
   73.0174,       679,
   73.0375,       619,
   73.0577,       648,
   73.0779,       629,
    73.098,       621,
   73.1182,       644,
   73.1384,       675,
   73.1585,       651,
   73.1787,       642,
   73.1989,       632,
   73.2191,       652,
   73.2392,       643,
   73.2594,       678,
   73.2796,       618,
   73.2997,       651,
   73.3199,       639,
   73.3401,       663,
   73.3602,       636,
   73.3804,       671,
   73.4006,       633,
   73.4207,       683,
   73.4409,       680,
   73.4611,       646,
   73.4812,       672,
   73.5014,       647,
   73.5216,       632,
   73.5417,       656,
   73.5619,       676,
   73.5821,       713,
   73.6023,       715,
   73.6224,       710,
   73.6426,       661,
   73.6628,       702,
   73.6829,       774,
   73.7031,       780,
   73.7233,       822,
   73.7434,       808,
   73.7636,       914,
   73.7838,       867,
   73.8039,       859,
   73.8241,       886,
   73.8443,       943,
   73.8644,       937,
   73.8846,       924,
   73.9048,       989,
   73.9249,       998,
   73.9451,      1129,
   73.9653,      1289,
   73.9855,      1392,
   74.0056,      1711,
   74.0258,      2182,
    74.046,      3031,
   74.0661,      4949,
   74.0863,      7805,
   74.1065,     10929,
   74.1266,     10831,
   74.1468,      7769,
    74.167,      5048,
   74.1871,      3096,
   74.2073,      2318,
   74.2275,      2085,
   74.2476,      2144,
   74.2678,      2611,
    74.288,      3510,
   74.3082,      5024,
   74.3283,      6074,
   74.3485,      5504,
   74.3687,      3881,
   74.3888,      2677,
    74.409,      1853,
   74.4292,      1399,
   74.4493,      1219,
   74.4695,       993,
   74.4897,       959,
   74.5098,       910,
     74.53,       927,
   74.5502,       858,
   74.5703,       833,
   74.5905,       791,
   74.6107,       779,
   74.6308,       783,
    74.651,       765,
   74.6712,       746,
   74.6914,       677,
   74.7115,       709,
   74.7317,       717,
   74.7519,       684,
    74.772,       660,
   74.7922,       688,
   74.8124,       664,
   74.8325,       633,
   74.8527,       701,
   74.8729,       680,
    74.893,       673,
   74.9132,       662,
   74.9334,       641,
   74.9535,       662,
   74.9737,       678,
   74.9939,       615,
    75.014,       628,
   75.0342,       625,
   75.0544,       641,
   75.0746,       642,
   75.0947,       628,
   75.1149,       602,
   75.1351,       614,
   75.1552,       648,
   75.1754,       628,
   75.1956,       644,
   75.2157,       647,
   75.2359,       625,
   75.2561,       633,
   75.2762,       663,
   75.2964,       640,
   75.3166,       602,
   75.3367,       647,
   75.3569,       611,
   75.3771,       601,
   75.3973,       629,
   75.4174,       662,
   75.4376,       601,
   75.4578,       682,
   75.4779,       607,
   75.4981,       614,
   75.5183,       624,
   75.5384,       641,
   75.5586,       640,
   75.5788,       624,
   75.5989,       641,
   75.6191,       622,
   75.6393,       643,
   75.6594,       616,
   75.6796,       637,
   75.6998,       640,
   75.7199,       603,
   75.7401,       607,
   75.7603,       635,
   75.7805,       633,
   75.8006,       616,
   75.8208,       653,
    75.841,       567,
   75.8611,       640,
   75.8813,       609,
   75.9015,       652,
   75.9216,       595,
   75.9418,       615,
    75.962,       659,
   75.9821,       601,
   76.0023,       603,
   76.0225,       651,
   76.0426,       591,
   76.0628,       645,
    76.083,       645,
   76.1032,       626,
   76.1233,       599,
   76.1435,       604,
   76.1637,       612,
   76.1838,       653,
    76.204,       611,
   76.2242,       631,
   76.2443,       605,
   76.2645,       666,
   76.2847,       592,
   76.3048,       612,
    76.325,       603,
   76.3452,       607,
   76.3653,       649,
   76.3855,       614,
   76.4057,       588,
   76.4258,       630,
    76.446,       600,
   76.4662,       622,
   76.4864,       600,
   76.5065,       583,
   76.5267,       605,
   76.5469,       612,
    76.567,       597,
   76.5872,       627,
   76.6074,       575,
   76.6275,       600,
   76.6477,       599,
   76.6679,       592,
    76.688,       604,
   76.7082,       586,
   76.7284,       582,
   76.7485,       634,
   76.7687,       603,
   76.7889,       594,
    76.809,       596,
   76.8292,       589,
   76.8494,       594,
   76.8696,       594,
   76.8897,       614,
   76.9099,       614,
   76.9301,       632,
   76.9502,       622,
   76.9704,       566,
   76.9906,       640,
   77.0107,       593,
   77.0309,       582,
   77.0511,       628,
   77.0712,       608,
   77.0914,       627,
   77.1116,       622,
   77.1317,       607,
   77.1519,       584,
   77.1721,       601,
   77.1923,       605,
   77.2124,       602,
   77.2326,       608,
   77.2528,       609,
   77.2729,       590,
   77.2931,       637,
   77.3133,       616,
   77.3334,       627,
   77.3536,       597,
   77.3738,       582,
   77.3939,       613,
   77.4141,       620,
   77.4343,       623,
   77.4544,       653,
   77.4746,       583,
   77.4948,       578,
   77.5149,       611,
   77.5351,       638,
   77.5553,       573,
   77.5755,       628,
   77.5956,       634,
   77.6158,       615,
    77.636,       629,
   77.6561,       590,
   77.6763,       606,
   77.6965,       653,
   77.7166,       580,
   77.7368,       602,
    77.757,       615,
   77.7771,       570,
   77.7973,       583,
   77.8175,       627,
   77.8376,       632,
   77.8578,       608,
    77.878,       590,
   77.8981,       582,
   77.9183,       614,
   77.9385,       602,
   77.9587,       591,
   77.9788,       592,
    77.999,       600,
