;RAW4.00
[RawHeader]
Date=11/26/2025
EstimatedTotalTime=426.6
FurtherDQLReading=0
HardwareIndicator=65519
MeasuredTotalTime=4.29315
MeasurementFlag=1
NumberOfMeasuredRanges=1
NumberOfRanges=1
Time=07:57:45

[VarInfo]
Type=USER
Flags=0
Value=Lab Manager

[VarInfo]
Type=SAMPLEID
Flags=0
Value=Commander Sample ID

[VarInfo]
Type=COMMENT
Flags=0
Value=

[VarInfo]
Type=UTF
Flags=0
Value=

[VarInfo]
Type=CREATOR
Flags=0
Value=V5Converter

[VarInfo]
Type=CREATOR_VERSION
Flags=0
Value=4.4.16.0

[HardwareConfiguration]
AbsorptionFactor=9999
ActivateAbsorber=0
Alpha1=1.5406
Alpha2=1.54439
AlphaAverage=1.54184
AlphaRatio=0.5
Analyzer=0
Anode=Cu
AntiScatteringSlit=9999
BeamOpticsFlags=0
Beta=1.39222
BetaRelativeIntensity=0
DeactivateAbsorber=0
DetectorSlit=9999
DivergenceSlit=9999
GoniometerControl=0
GoniometerDiameter=282
GoniometerModel=256
GoniometerStage=7
Monochromator=0
NearSampleSlit=9999
PrimarySollerSlit=9999
SampleChanger=0
SecondSollerSlit=9999
SynchronousAxis=0
ThinFilmAttachment=9999
WaveUnit=A

[RangeHeader]
ActuallyUsedLambda=1.54184
AdditionalDetectorMask=257
DataRecordLength=4
DelayTime=0
DisplayPlaneNumber=0
EstimatedScanTime=427
ExtraParametersMask=0
GeneratorCurrent=10
GeneratorVoltage=30
Increment=0.0201685
Increment3=0
NumberOfCompletedData=1885
NumberOfCounts=1
NumberOfDetectors=0
NumberOfDrives=3
NumberOfEncoderDrives=0
NumberOfMeasuredData=1885
NumberOfVaryingParameters=0
RangeStartTime=0
RotationSpeed=0
ScanMode=1
ScanType=Locked Coupled
SimulatedMeasConditions=0
SlitChangerIn=0
SmootingWidth=0
Start=40.0015
Steps=1885
SynchronousRotation=0
Time=33

[VarInfo]
Type=PSD_DISCRIM
Flags=0
Value=0.11;0.5

[VarInfo]
Type=OPTICS_V5
Flags=0
Value=H4sIAAAAAAAEAO1d63KjOhJ+Fda/zqmtBIPtXKaITzm2J+OaOHbFTnKmtrZcBORYZzC4AOey//d99hl2X2x1QViIS8C3JBN+TCaodWm6+2vUUkfS/nieW9IjcD3o2GcV5bBakYBtOCa0H84qS396oBxV/mhqF44NnTnwgdt25gvHBrbf0X1dQq1t78uzB88qM99ffJHlp6enw6faoeM+yGq1qsh/9i9HxgzM9QNoe75uG6AStjJfb1WRbqEH7y1wpc/BWWXFR0joAM9w4cInL/Bj4UHLsSW+3oXrLBc9NBZ6t3Pgojcb3P8FDH+o+7OzitwBj9AAMt+CrxUfl1Lblu55QRehTORzoM8XqLDt2L4ObeBy/coBc6yHluEvdYtxoR6o1ePT02O5h8TkLue4tzhrTW2EZGjqqBswQr3oFvyXjl+9OdUtD2hyGln7c259hcAyrwHqHhq4EDFpA/KbJ8lNjfKD1ToCFipvdm00JDA1OUbR6Btwou9Ab2HpL824AjQ5tXK8m+bF4OrHhPzodEft64TGrBVWDOsoPhpP1bBWhrxWvISy1r0hIUP+4r8skMLHrm78xG8sGODQhXPdfSHkZBMMakgD9GxISBvSeHkPOIFIQeOidilHx44baRI9r5mSRmyEDSxUYBJZ3blu/xy4JnCvAfYzAL0wsdX3b8s5NVnMwIfj6+8T9KPV/l7IxHm5Jhp5z0OvBh9BE+kGCS98DAk920dCZMIVSikeHA9SJulgmhwp1bAq2ZMXfZT4B2LSAxc+QFu3ogSlwl6OWi7Ssb/0moPwnSLFGmsYPPedJdIj0qJQrgWE0MJ5JCOdEXICmjFtjmnJUA7J0tRxpRHQLUBtYA3AytxYcejGiMm4JZa46kmmLG0LrhEWBa3xcus++8A2MZDfDYZpCWdMkQKtj5nwHfcltGVFk+OFGseMJxH2qHoYWND7cnJosmJN5ku1uCnh1+H65qyTKx3Y545jAR1NEG5s6BPpdiDSG56bXcI59IlYwiKvWdVk7knrgKm+tPxb3VoCboigVyQ96CPXTshnFewlKri/oQta5l9LD8GnYEuZYx67mbHTJoqe6ZblPK0cjVCOarZnwPgJzFUVVqC1ESPOHKsWvx33pNH5Zl7erhEyxkg2xVq1lr7TdoHug6HrLIDrvzAWEyiR9/eIRfdMhLKr5fweuE21rslCEdaQRS08UPF//xMyUSUc9B0TNG8Quqbos4xMnTwz90Y+PzEHluy7tuWt5HgP/ND5vNXOHBXjLvaN2aNbYuh5A79Evm3IJvErCL6JJ23LP418rD3OPSHRTOHDEjnla/gw85sIdabECnU0BoKwUKWYS+vrz5fAfvBnTbXRwKJhj2nOjrJISkNktZevObqMVm/q5DL4SnFwGS02cm5pFninPwKqkpa1mOmKYIUieVuWOJh2nCVqyWzxf//ehzWm2Nxw9uJBQ7dIeQJnTA/KYaNePXrNFtfo7ca2MPfItOjcf/WMZelYS+paugfVBtErK9H60Ibz5bx5oBwenx4fndaUWv3kSK0pjePu32vVE4S4oAZGIvklvWZQ4W0Rs4b0UpC0Rk/7QJiajTD10yOsXjvdJsRYdyXGNhLfFkDGuto1yh6Bqz+IoV6M/ulxppzUt4kz1l2Js43EtwWcsa52jLNz4OupIMPET46w2qmqqttD2Kq7EmEbiW9jhK262jHCrvGaRirECHVXGHuvCFutth02NsJWrKMSVWsKbh08xTrZCZK+OsbSG7gQ2D5ZHRSgJJK3tspG1g4H057tH9XfH6CibEVXr/OjKbkXhfRCBYDfqOeDOWLs0nmABl3VvJn0rm5bl73OpP2tN9TkFYkJfAye/WbPftQtiMQzg4uVjCJaIvW07+CFjI1lEf6uyTEWsnm67F2lsnIJbSARW0kbWtlk6OEgY+yhA20/e3B1k8GZLoaD0auqCHeKD6S58wgk35HmwJjpNrYKCTmTxd/SeKxl8/ienF2WXefzdFk9bOTm6N5Lz546UqiqhAVciZbr3FOQY3BWIVUkVBrdJr+ZtC6H31rRcrGRhEeyyEjkXXKxo0bYURPZUVPYUbPYUQuzEywL8PxEyoQBQloib5PW7UUWe0HrokySmCrg8D78PeybkkWGzrvjVjIvuH4+FiIbUQEDqBXeyxN46LJSkY3uZbffvRqnSMV2TCAFbaXVSDlkQmfBvNq4EkHsASVZZdetcW+QpTTSOp+8YlOLgL9pYnk4ToQicvl10J4MrpMZJONJkeZyfMe6Ed+xvgA2skTfcYU8TFacvPmcsQFLZ8dr7r82tXQiP3O7dSw/voYXlO4q5vl5u6WEjcypLxqFfRNqVSHyCL4FKaFHctihVBMCjFp1f7FErbF+MBEXRsEvZLo55TW19tJ1sT+LmlpQuitTm7f2YWpolHD6sQ1TaySFsh/E0uKy2LulDZ0nkgHOmxQp25WV3aUEnW+xcHMnRJr5lluqhymm+EkWW+4491hde7Ul3ssWbV9+7YtfJA0UTQyNGXBfyVbbPA8ud74bklUw60j9YgWfilQ/I4dzraYmBmuZ2QhiKJW9qxqLdLI3h6IxR/YytzAXT1vD42MIIXVJnC4nR8cylyaJ7OZRhxZeJcCPHu2eWH2ZQFkmUJYJlGUCZZlA+fE2xcsEyvezJV4mUP6aCCsTKN8TxsoEyl8VZ2UC5XvCWZlA+ashrEygfE8IKxMoywTKMoGyTKAsEyjLBMoygbJMoCwTKMsEyjKBskygLBMoywTKMoGyTKAsEyjLBMoygbJMoHzr+KNMoCwTKD9tAiXLkUS/iumT7KzT+Cmg4tm7GScqd+cL/4UkG4arGcVOT+72h4PRhP4scnoyGTg0xcTzk2U+BzLzcGMl7XBjde+HGw8WbefceR5MR45lATfhiGNKyDjkmKsg/WbotmTQQ8ElNJZEifQE7N/XgX9k+LhXSSBnuYaE6hunwkb7FPSZfOxxRGTIPPKL8PePe2KymphYK0bAR+scevtxXAin6Q2diJrmRGpv50S+wmdgEkNlcw/RmVjQz3IliCz1U2CAaRv4kdXICV5EJGb6ELHy5h6E61FQZYr/YA2o98gntQ/sOmq5XMfxeudlE7OmVzSsTJpYMhZe0hcRy1SR/jGf/zPDjH/DR/7fA2QfErQ9hAVgol98R9I5hWWaMq5mhBds4KeJUp0oaQYcIb5mwIVtN52ZmPP5qH/5US30lx930PRnYm4HLtvZktP8/WxBxzgL44DNsuvjPeVdZqh+7nWGuODWWWeI97KTtI5vABumgB1a+LnBszXslNBZz+i3gpzt3wSirjOzGenzhQXuZgBYY/QC/KUgIkkjH65UJ0ChmfamMj+F+lCxGJtFbxiJ1dIisfpGkRjhMR6HvT9h3thLD5hkeHHgLInKwm1g17oJl16CldWVYB+fXrg3mE494KdZfesZevz3Iay2B1ceYybnbh1ywVU1LSlVPTypn6qNRkNN8LvHjcOTRv24dqQqvK8VhNAM7mETbitc+w7DEUCRgJl9i2FYh7v9roNCXwNnMmzhLkORh4SYKLFGsfsMwz42ifVFRj70nYaF9FrM/4zwzYaj4jcbRuW787sNw+F2cbvhyRss3uHlOks3wMyxzMQtgMsX+xm8pBxzcfnj6s/ujy654bCjSsOZ7olX4OYEsRyOEwezQMpa3mDWKOO8X3k4Wj2jProvYAvX6KYzLmrzl7v28CTPUlxNiU9Yi8wL0ecUu0XdWrmWfniNJk2pxn6HJHazGl4xZ9PpjyfkXwFHw4ba6R6gstmscZebgP09bgIKCIswkLYN2N/zNmAmj6JSs3YC+59rJ1Cp53Ii1c+wFVhGSkUjpbRAqXF4dHrSUJRqPWmBqqEcHldP68dqfQeB0sontAHGieA9hcKI4+SmzLSadMAw70kjnLfkkW8dVkPLMIDnOS4E3hoRE+Mi7j2jlLwRUvyl1/ekrIcPHRqtqcpiLudicNWekB9FHA7lZ+eh0Ri4qHQnkdHp3mdFwxkkShPAfO0EGXBRYgTUqKlErdE1Wb0CGJXZGHSdNqGDKCsJ1TJnP6vqMuJUZpxuDuAUxgVFpsREEgUYMFu+rxszPNBZ5WDPRwluc5pzmitr4SQ+y+l5TBQhKMMCjfMcZLfIWj48ALPjYkzSv8ZE3eHvWs9sIu2S3oNHTCEVRwtgwGnwt6KsUpyC4BLvvcgEK46DYs5u+K03mpAfRZxdFKHbnGBVi0yvQisOP5lEYfRDEPwf22IqXU7pckqXI7qcECvsd+8VLsZPznhGTjB6jZVIzZz8ZA+dc9yig6ZEJvFifFQxXo8YAd9H0PIkfi6GHAXNPKxILbzB7vVR6AbplI5NtLGOuVT/5i2e1Rn4EFu+VFtBkewhB6uqmiyUa3yqI/WAkWUTj/6JxSqYYK6D6Pv/u9RXv2COAAA=

[PSD]
ActualTwoTheta=9999
FirstUsedChannel=0
FixedPSD=0
PSDOpening=4.99171
PSDType=5

[Drive]
DriveFlags=1
DriveName=2Theta
DriveNumber=2
DriveOffset=0
OffsetIndex=0
OscillationAmplitude=0
OscillationSpeed=0
StartPosition=40.0015

[Drive]
DriveFlags=1
DriveName=Theta
DriveNumber=1
DriveOffset=0
OffsetIndex=0
OscillationAmplitude=0
OscillationSpeed=0
StartPosition=20.0007

[Drive]
DriveFlags=1
DriveName=Phi
DriveNumber=3
DriveOffset=0
OffsetIndex=0
OscillationAmplitude=0
OscillationSpeed=0
StartPosition=0

[Data]
     Angle,       PSD,
   40.0015,       656,
   40.0217,       643,
   40.0418,       633,
    40.062,       654,
   40.0822,       646,
   40.1023,       577,
   40.1225,       628,
   40.1427,       630,
   40.1628,       635,
    40.183,       632,
   40.2032,       629,
   40.2233,       589,
   40.2435,       631,
   40.2637,       618,
   40.2838,       638,
    40.304,       616,
   40.3242,       622,
   40.3444,       595,
   40.3645,       635,
   40.3847,       597,
   40.4049,       590,
    40.425,       651,
   40.4452,       658,
   40.4654,       635,
   40.4855,       605,
   40.5057,       637,
   40.5259,       614,
    40.546,       589,
   40.5662,       631,
   40.5864,       611,
   40.6065,       628,
   40.6267,       637,
   40.6469,       631,
   40.6671,       576,
   40.6872,       612,
   40.7074,       600,
   40.7276,       603,
   40.7477,       600,
   40.7679,       682,
   40.7881,       627,
   40.8082,       584,
   40.8284,       638,
   40.8486,       580,
   40.8687,       638,
   40.8889,       585,
   40.9091,       604,
   40.9292,       637,
   40.9494,       630,
   40.9696,       611,
   40.9897,       599,
   41.0099,       631,
   41.0301,       633,
   41.0503,       651,
   41.0704,       654,
   41.0906,       626,
   41.1108,       644,
   41.1309,       626,
   41.1511,       627,
   41.1713,       595,
   41.1914,       630,
   41.2116,       621,
   41.2318,       619,
   41.2519,       599,
   41.2721,       599,
   41.2923,       622,
   41.3124,       647,
   41.3326,       643,
   41.3528,       670,
   41.3729,       635,
   41.3931,       634,
   41.4133,       634,
   41.4335,       651,
   41.4536,       610,
   41.4738,       633,
    41.494,       643,
   41.5141,       638,
   41.5343,       623,
   41.5545,       624,
   41.5746,       640,
   41.5948,       584,
    41.615,       582,
   41.6351,       641,
   41.6553,       625,
   41.6755,       620,
   41.6956,       624,
   41.7158,       621,
    41.736,       602,
   41.7562,       601,
   41.7763,       573,
   41.7965,       634,
   41.8167,       620,
   41.8368,       674,
    41.857,       668,
   41.8772,       608,
   41.8973,       647,
   41.9175,       618,
   41.9377,       653,
   41.9578,       699,
    41.978,       664,
   41.9982,       681,
   42.0183,       768,
   42.0385,       754,
   42.0587,       736,
   42.0788,       756,
    42.099,       719,
   42.1192,       722,
   42.1394,       756,
   42.1595,       744,
   42.1797,       715,
   42.1999,       718,
     42.22,       769,
   42.2402,       700,
   42.2604,       709,
   42.2805,       757,
   42.3007,       740,
   42.3209,       733,
    42.341,       780,
   42.3612,       735,
   42.3814,       786,
   42.4015,       750,
   42.4217,       779,
   42.4419,       728,
    42.462,       719,
   42.4822,       733,
   42.5024,       760,
   42.5226,       707,
   42.5427,       780,
   42.5629,       752,
   42.5831,       772,
   42.6032,       714,
   42.6234,       708,
   42.6436,       756,
   42.6637,       759,
   42.6839,       759,
   42.7041,       756,
   42.7242,       766,
   42.7444,       741,
   42.7646,       798,
   42.7847,       763,
   42.8049,       788,
   42.8251,       820,
   42.8453,       803,
   42.8654,       802,
   42.8856,       810,
   42.9058,       794,
   42.9259,       759,
   42.9461,       830,
   42.9663,       828,
   42.9864,       845,
   43.0066,       899,
   43.0268,       982,
   43.0469,       938,
   43.0671,       971,
   43.0873,      1070,
   43.1074,      1073,
   43.1276,      1172,
   43.1478,      1094,
   43.1679,      1187,
   43.1881,      1324,
   43.2083,      1287,
   43.2285,      1442,
   43.2486,      1550,
   43.2688,      1652,
    43.289,      1852,
   43.3091,      2044,
   43.3293,      2276,
   43.3495,      2428,
   43.3696,      2713,
   43.3898,      3037,
     43.41,      3954,
   43.4301,      5650,
   43.4503,     10629,
   43.4705,     22644,
   43.4906,     42259,
   43.5108,     49735,
    43.531,     34401,
   43.5511,     17581,
   43.5713,     13273,
   43.5915,     18427,
   43.6117,     25207,
   43.6318,     23872,
    43.652,     14218,
   43.6722,      6944,
   43.6923,      4177,
   43.7125,      3137,
   43.7327,      2518,
   43.7528,      2205,
    43.773,      1988,
   43.7932,      1823,
   43.8133,      1642,
   43.8335,      1538,
   43.8537,      1398,
   43.8738,      1261,
    43.894,      1237,
   43.9142,      1208,
   43.9344,      1102,
   43.9545,      1040,
   43.9747,      1001,
   43.9949,       959,
    44.015,       928,
   44.0352,       950,
   44.0554,       879,
   44.0755,       821,
   44.0957,       879,
   44.1159,       856,
    44.136,       854,
   44.1562,       813,
   44.1764,       795,
   44.1965,       804,
   44.2167,       812,
   44.2369,       829,
    44.257,       817,
   44.2772,       799,
   44.2974,       856,
   44.3176,       822,
   44.3377,       732,
   44.3579,       758,
   44.3781,       743,
   44.3982,       750,
   44.4184,       741,
   44.4386,       779,
   44.4587,       721,
   44.4789,       725,
   44.4991,       741,
   44.5192,       792,
   44.5394,       705,
   44.5596,       744,
   44.5797,       737,
   44.5999,       759,
   44.6201,       739,
   44.6402,       733,
   44.6604,       726,
   44.6806,       707,
   44.7008,       748,
   44.7209,       740,
   44.7411,       738,
   44.7613,       716,
   44.7814,       759,
   44.8016,       698,
   44.8218,       707,
   44.8419,       684,
   44.8621,       700,
   44.8823,       704,
   44.9024,       726,
   44.9226,       691,
   44.9428,       742,
   44.9629,       664,
   44.9831,       769,
   45.0033,       673,
   45.0235,       729,
   45.0436,       696,
   45.0638,       732,
    45.084,       707,
   45.1041,       721,
   45.1243,       703,
   45.1445,       712,
   45.1646,       698,
   45.1848,       702,
    45.205,       678,
   45.2251,       762,
   45.2453,       694,
   45.2655,       726,
   45.2856,       657,
   45.3058,       706,
    45.326,       680,
   45.3461,       732,
   45.3663,       705,
   45.3865,       732,
   45.4067,       740,
   45.4268,       697,
    45.447,       717,
   45.4672,       713,
   45.4873,       676,
   45.5075,       702,
   45.5277,       711,
   45.5478,       693,
    45.568,       707,
   45.5882,       655,
   45.6083,       669,
   45.6285,       666,
   45.6487,       719,
   45.6688,       672,
    45.689,       705,
   45.7092,       647,
   45.7294,       707,
   45.7495,       637,
   45.7697,       707,
   45.7899,       711,
     45.81,       674,
   45.8302,       691,
   45.8504,       678,
   45.8705,       694,
   45.8907,       659,
   45.9109,       644,
    45.931,       641,
   45.9512,       656,
   45.9714,       666,
   45.9915,       663,
   46.0117,       680,
   46.0319,       716,
    46.052,       666,
   46.0722,       677,
   46.0924,       665,
   46.1126,       700,
   46.1327,       626,
   46.1529,       700,
   46.1731,       661,
   46.1932,       741,
   46.2134,       657,
   46.2336,       687,
   46.2537,       696,
   46.2739,       646,
   46.2941,       666,
   46.3142,       672,
   46.3344,       699,
   46.3546,       679,
   46.3747,       679,
   46.3949,       683,
   46.4151,       660,
   46.4352,       669,
   46.4554,       659,
   46.4756,       669,
   46.4958,       686,
   46.5159,       668,
   46.5361,       674,
   46.5563,       665,
   46.5764,       670,
   46.5966,       642,
   46.6168,       650,
   46.6369,       660,
   46.6571,       623,
   46.6773,       653,
   46.6974,       653,
   46.7176,       650,
   46.7378,       654,
   46.7579,       642,
   46.7781,       615,
   46.7983,       630,
   46.8185,       643,
   46.8386,       665,
   46.8588,       695,
    46.879,       661,
   46.8991,       641,
   46.9193,       695,
   46.9395,       659,
   46.9596,       618,
   46.9798,       691,
        47,       637,
   47.0201,       676,
   47.0403,       717,
   47.0605,       629,
   47.0806,       740,
   47.1008,       634,
    47.121,       717,
   47.1411,       633,
   47.1613,       660,
   47.1815,       647,
   47.2017,       663,
   47.2218,       648,
    47.242,       712,
   47.2622,       667,
   47.2823,       658,
   47.3025,       590,
   47.3227,       671,
   47.3428,       684,
    47.363,       691,
   47.3832,       663,
   47.4033,       629,
   47.4235,       666,
   47.4437,       622,
   47.4638,       663,
    47.484,       619,
   47.5042,       664,
   47.5243,       649,
   47.5445,       663,
   47.5647,       654,
   47.5849,       689,
    47.605,       617,
   47.6252,       675,
   47.6454,       659,
   47.6655,       654,
   47.6857,       643,
   47.7059,       636,
    47.726,       663,
   47.7462,       642,
   47.7664,       666,
   47.7865,       657,
   47.8067,       637,
   47.8269,       638,
    47.847,       689,
   47.8672,       592,
   47.8874,       656,
   47.9076,       642,
   47.9277,       633,
   47.9479,       691,
   47.9681,       650,
   47.9882,       649,
   48.0084,       628,
   48.0286,       652,
   48.0487,       654,
   48.0689,       680,
   48.0891,       669,
   48.1092,       613,
   48.1294,       647,
   48.1496,       638,
   48.1697,       599,
   48.1899,       641,
   48.2101,       645,
   48.2302,       631,
   48.2504,       672,
   48.2706,       617,
   48.2908,       660,
   48.3109,       613,
   48.3311,       661,
   48.3513,       636,
   48.3714,       670,
   48.3916,       661,
   48.4118,       625,
   48.4319,       679,
   48.4521,       624,
   48.4723,       676,
   48.4924,       664,
   48.5126,       646,
   48.5328,       672,
   48.5529,       620,
   48.5731,       626,
   48.5933,       708,
   48.6134,       630,
   48.6336,       635,
   48.6538,       673,
    48.674,       645,
   48.6941,       667,
   48.7143,       657,
   48.7345,       672,
   48.7546,       679,
   48.7748,       649,
    48.795,       669,
   48.8151,       690,
   48.8353,       658,
   48.8555,       699,
   48.8756,       636,
   48.8958,       648,
    48.916,       715,
   48.9361,       701,
   48.9563,       664,
   48.9765,       654,
   48.9967,       651,
   49.0168,       669,
    49.037,       660,
   49.0572,       711,
   49.0773,       691,
   49.0975,       657,
   49.1177,       634,
   49.1378,       670,
    49.158,       675,
   49.1782,       667,
   49.1983,       645,
   49.2185,       724,
   49.2387,       714,
   49.2588,       685,
    49.279,       666,
   49.2992,       663,
   49.3193,       638,
   49.3395,       676,
   49.3597,       654,
   49.3799,       653,
      49.4,       683,
   49.4202,       697,
   49.4404,       688,
   49.4605,       695,
   49.4807,       685,
   49.5009,       688,
    49.521,       707,
   49.5412,       708,
   49.5614,       633,
   49.5815,       701,
   49.6017,       694,
   49.6219,       641,
    49.642,       686,
   49.6622,       705,
   49.6824,       688,
   49.7025,       670,
   49.7227,       673,
   49.7429,       725,
   49.7631,       684,
   49.7832,       661,
   49.8034,       705,
   49.8236,       729,
   49.8437,       688,
   49.8639,       703,
   49.8841,       677,
   49.9042,       694,
   49.9244,       650,
   49.9446,       676,
   49.9647,       712,
   49.9849,       719,
   50.0051,       698,
   50.0252,       700,
   50.0454,       749,
   50.0656,       715,
   50.0858,       702,
   50.1059,       727,
   50.1261,       748,
   50.1463,       790,
   50.1664,       789,
   50.1866,       783,
   50.2068,       763,
   50.2269,       831,
   50.2471,       862,
   50.2673,       883,
   50.2874,       947,
   50.3076,       995,
   50.3278,       942,
   50.3479,       945,
   50.3681,      1063,
   50.3883,      1115,
   50.4084,      1163,
   50.4286,      1247,
   50.4488,      1290,
    50.469,      1307,
   50.4891,      1395,
   50.5093,      1632,
   50.5295,      2007,
   50.5496,      2696,
   50.5698,      3923,
     50.59,      6000,
   50.6101,      9412,
   50.6303,     11320,
   50.6505,     10404,
   50.6706,      7377,
   50.6908,      5121,
    50.711,      4310,
   50.7311,      4944,
   50.7513,      5869,
   50.7715,      6359,
   50.7917,      5286,
   50.8118,      3738,
    50.832,      2429,
   50.8522,      1852,
   50.8723,      1556,
   50.8925,      1353,
   50.9127,      1210,
   50.9328,      1062,
    50.953,      1081,
   50.9732,      1016,
   50.9933,       949,
   51.0135,       904,
   51.0337,       868,
   51.0538,       857,
    51.074,       859,
   51.0942,       835,
   51.1143,       763,
   51.1345,       745,
   51.1547,       720,
   51.1749,       752,
    51.195,       737,
   51.2152,       732,
   51.2354,       739,
   51.2555,       708,
   51.2757,       726,
   51.2959,       698,
    51.316,       680,
   51.3362,       721,
   51.3564,       688,
   51.3765,       660,
   51.3967,       659,
   51.4169,       721,
    51.437,       655,
   51.4572,       693,
   51.4774,       706,
   51.4975,       680,
   51.5177,       651,
   51.5379,       671,
   51.5581,       638,
   51.5782,       677,
   51.5984,       688,
   51.6186,       694,
   51.6387,       692,
   51.6589,       715,
   51.6791,       609,
   51.6992,       590,
   51.7194,       663,
   51.7396,       647,
   51.7597,       690,
   51.7799,       649,
   51.8001,       702,
   51.8202,       694,
   51.8404,       664,
   51.8606,       634,
   51.8808,       674,
   51.9009,       670,
   51.9211,       638,
   51.9413,       657,
   51.9614,       670,
   51.9816,       674,
   52.0018,       678,
   52.0219,       623,
   52.0421,       614,
   52.0623,       653,
   52.0824,       629,
   52.1026,       660,
   52.1228,       691,
   52.1429,       631,
   52.1631,       626,
   52.1833,       621,
   52.2034,       647,
   52.2236,       640,
   52.2438,       632,
    52.264,       644,
   52.2841,       635,
   52.3043,       659,
   52.3245,       619,
   52.3446,       625,
   52.3648,       621,
    52.385,       636,
   52.4051,       620,
   52.4253,       632,
   52.4455,       648,
   52.4656,       604,
   52.4858,       706,
    52.506,       621,
   52.5261,       637,
   52.5463,       624,
   52.5665,       634,
   52.5866,       624,
   52.6068,       676,
    52.627,       582,
   52.6472,       623,
   52.6673,       573,
   52.6875,       667,
   52.7077,       659,
   52.7278,       624,
    52.748,       591,
   52.7682,       660,
   52.7883,       647,
   52.8085,       629,
   52.8287,       595,
   52.8488,       618,
    52.869,       633,
   52.8892,       602,
   52.9093,       601,
   52.9295,       626,
   52.9497,       607,
   52.9699,       614,
     52.99,       648,
   53.0102,       594,
   53.0304,       625,
   53.0505,       653,
   53.0707,       626,
   53.0909,       612,
    53.111,       618,
   53.1312,       643,
   53.1514,       665,
   53.1715,       666,
   53.1917,       659,
   53.2119,       678,
    53.232,       635,
   53.2522,       621,
   53.2724,       678,
   53.2925,       625,
   53.3127,       610,
   53.3329,       612,
   53.3531,       648,
   53.3732,       660,
   53.3934,       654,
   53.4136,       579,
   53.4337,       599,
   53.4539,       628,
   53.4741,       645,
   53.4942,       636,
   53.5144,       601,
   53.5346,       603,
   53.5547,       604,
   53.5749,       562,
   53.5951,       582,
   53.6152,       599,
   53.6354,       597,
   53.6556,       619,
   53.6757,       592,
   53.6959,       641,
   53.7161,       588,
   53.7363,       597,
   53.7564,       612,
   53.7766,       609,
   53.7968,       589,
   53.8169,       624,
   53.8371,       642,
   53.8573,       677,
   53.8774,       635,
   53.8976,       617,
   53.9178,       630,
   53.9379,       629,
   53.9581,       635,
   53.9783,       639,
   53.9984,       639,
   54.0186,       627,
   54.0388,       632,
    54.059,       621,
   54.0791,       605,
   54.0993,       628,
   54.1195,       583,
   54.1396,       644,
   54.1598,       635,
     54.18,       626,
   54.2001,       616,
   54.2203,       611,
   54.2405,       642,
   54.2606,       597,
   54.2808,       622,
    54.301,       632,
   54.3211,       620,
   54.3413,       642,
   54.3615,       622,
   54.3816,       628,
   54.4018,       636,
    54.422,       601,
   54.4422,       640,
   54.4623,       627,
   54.4825,       622,
   54.5027,       629,
   54.5228,       616,
    54.543,       614,
   54.5632,       600,
   54.5833,       586,
   54.6035,       632,
   54.6237,       599,
   54.6438,       599,
    54.664,       642,
   54.6842,       637,
   54.7043,       595,
   54.7245,       585,
   54.7447,       573,
   54.7648,       646,
    54.785,       640,
   54.8052,       635,
   54.8254,       644,
   54.8455,       599,
   54.8657,       596,
   54.8859,       606,
    54.906,       633,
   54.9262,       652,
   54.9464,       574,
   54.9665,       595,
   54.9867,       596,
   55.0069,       633,
    55.027,       566,
   55.0472,       611,
   55.0674,       611,
   55.0875,       617,
   55.1077,       612,
   55.1279,       667,
   55.1481,       604,
   55.1682,       644,
   55.1884,       586,
   55.2086,       616,
   55.2287,       599,
   55.2489,       627,
   55.2691,       578,
   55.2892,       603,
   55.3094,       585,
   55.3296,       618,
   55.3497,       657,
   55.3699,       653,
   55.3901,       638,
   55.4102,       637,
   55.4304,       623,
   55.4506,       627,
   55.4707,       590,
   55.4909,       643,
   55.5111,       646,
   55.5313,       590,
   55.5514,       634,
   55.5716,       627,
   55.5918,       638,
   55.6119,       600,
   55.6321,       612,
   55.6523,       621,
   55.6724,       637,
   55.6926,       598,
   55.7128,       651,
   55.7329,       647,
   55.7531,       645,
   55.7733,       655,
   55.7934,       621,
   55.8136,       573,
   55.8338,       619,
    55.854,       625,
   55.8741,       645,
   55.8943,       605,
   55.9145,       622,
   55.9346,       613,
   55.9548,       614,
    55.975,       599,
   55.9951,       591,
   56.0153,       614,
   56.0355,       602,
   56.0556,       622,
   56.0758,       593,
    56.096,       641,
   56.1161,       638,
   56.1363,       647,
   56.1565,       583,
   56.1766,       612,
   56.1968,       635,
    56.217,       594,
   56.2372,       626,
   56.2573,       597,
   56.2775,       608,
   56.2977,       623,
   56.3178,       625,
    56.338,       604,
   56.3582,       608,
   56.3783,       645,
   56.3985,       586,
   56.4187,       649,
   56.4388,       588,
    56.459,       604,
   56.4792,       592,
   56.4993,       600,
   56.5195,       596,
   56.5397,       594,
   56.5598,       570,
     56.58,       587,
   56.6002,       618,
   56.6204,       584,
   56.6405,       566,
   56.6607,       580,
   56.6809,       572,
    56.701,       588,
   56.7212,       601,
   56.7414,       606,
   56.7615,       562,
   56.7817,       580,
   56.8019,       632,
    56.822,       612,
   56.8422,       585,
   56.8624,       578,
   56.8825,       618,
   56.9027,       608,
   56.9229,       614,
   56.9431,       595,
   56.9632,       582,
   56.9834,       641,
   57.0036,       652,
   57.0237,       615,
   57.0439,       594,
   57.0641,       571,
   57.0842,       597,
   57.1044,       630,
   57.1246,       581,
   57.1447,       621,
   57.1649,       673,
   57.1851,       625,
   57.2052,       572,
   57.2254,       581,
   57.2456,       579,
   57.2657,       634,
   57.2859,       600,
   57.3061,       567,
   57.3263,       618,
   57.3464,       635,
   57.3666,       631,
   57.3868,       593,
   57.4069,       616,
   57.4271,       606,
   57.4473,       587,
   57.4674,       585,
   57.4876,       608,
   57.5078,       626,
   57.5279,       601,
   57.5481,       598,
   57.5683,       609,
   57.5884,       580,
   57.6086,       606,
   57.6288,       572,
   57.6489,       579,
   57.6691,       595,
   57.6893,       591,
   57.7095,       621,
   57.7296,       614,
   57.7498,       626,
     57.77,       604,
   57.7901,       591,
   57.8103,       587,
   57.8305,       600,
   57.8506,       598,
   57.8708,       599,
    57.891,       568,
   57.9111,       641,
   57.9313,       631,
   57.9515,       581,
   57.9716,       578,
   57.9918,       612,
    58.012,       609,
   58.0322,       641,
   58.0523,       628,
   58.0725,       613,
   58.0927,       579,
   58.1128,       554,
    58.133,       623,
   58.1532,       593,
   58.1733,       600,
   58.1935,       607,
   58.2137,       557,
   58.2338,       629,
    58.254,       578,
   58.2742,       598,
   58.2943,       618,
   58.3145,       617,
   58.3347,       594,
   58.3548,       593,
    58.375,       625,
   58.3952,       586,
   58.4154,       598,
   58.4355,       531,
   58.4557,       609,
   58.4759,       613,
    58.496,       567,
   58.5162,       594,
   58.5364,       648,
   58.5565,       597,
   58.5767,       586,
   58.5969,       636,
    58.617,       597,
   58.6372,       566,
   58.6574,       627,
   58.6775,       608,
   58.6977,       580,
   58.7179,       601,
    58.738,       609,
   58.7582,       618,
   58.7784,       561,
   58.7986,       586,
   58.8187,       618,
   58.8389,       563,
   58.8591,       614,
   58.8792,       589,
   58.8994,       602,
   58.9196,       574,
   58.9397,       587,
   58.9599,       589,
   58.9801,       585,
   59.0002,       569,
   59.0204,       635,
   59.0406,       611,
   59.0607,       597,
   59.0809,       597,
   59.1011,       581,
   59.1213,       611,
   59.1414,       587,
   59.1616,       556,
   59.1818,       651,
   59.2019,       597,
   59.2221,       639,
   59.2423,       590,
   59.2624,       577,
   59.2826,       604,
   59.3028,       558,
   59.3229,       549,
   59.3431,       608,
   59.3633,       593,
   59.3834,       586,
   59.4036,       610,
   59.4238,       602,
   59.4439,       607,
   59.4641,       617,
   59.4843,       654,
   59.5045,       618,
   59.5246,       575,
   59.5448,       537,
    59.565,       583,
   59.5851,       552,
   59.6053,       599,
   59.6255,       625,
   59.6456,       581,
   59.6658,       618,
    59.686,       598,
   59.7061,       581,
   59.7263,       591,
   59.7465,       650,
   59.7666,       578,
   59.7868,       610,
    59.807,       617,
   59.8271,       568,
   59.8473,       596,
   59.8675,       601,
   59.8877,       635,
   59.9078,       577,
    59.928,       645,
   59.9482,       623,
   59.9683,       568,
   59.9885,       543,
   60.0087,       590,
   60.0288,       611,
    60.049,       622,
   60.0692,       574,
   60.0893,       581,
   60.1095,       581,
   60.1297,       603,
   60.1498,       631,
     60.17,       606,
   60.1902,       596,
   60.2104,       618,
   60.2305,       616,
   60.2507,       600,
   60.2709,       605,
    60.291,       582,
   60.3112,       592,
   60.3314,       611,
   60.3515,       596,
   60.3717,       577,
   60.3919,       589,
    60.412,       551,
   60.4322,       549,
   60.4524,       596,
   60.4725,       608,
   60.4927,       612,
   60.5129,       601,
    60.533,       615,
   60.5532,       584,
   60.5734,       594,
   60.5936,       616,
   60.6137,       592,
   60.6339,       581,
   60.6541,       641,
   60.6742,       606,
   60.6944,       598,
   60.7146,       583,
   60.7347,       588,
   60.7549,       582,
   60.7751,       596,
   60.7952,       571,
   60.8154,       605,
   60.8356,       581,
   60.8557,       588,
   60.8759,       599,
   60.8961,       599,
   60.9163,       607,
   60.9364,       569,
   60.9566,       581,
   60.9768,       555,
   60.9969,       632,
   61.0171,       594,
   61.0373,       595,
   61.0574,       616,
   61.0776,       595,
   61.0978,       612,
   61.1179,       593,
   61.1381,       591,
   61.1583,       600,
   61.1784,       599,
   61.1986,       635,
   61.2188,       609,
   61.2389,       588,
   61.2591,       598,
   61.2793,       597,
   61.2995,       607,
   61.3196,       597,
   61.3398,       592,
     61.36,       580,
   61.3801,       618,
   61.4003,       552,
   61.4205,       605,
   61.4406,       608,
   61.4608,       574,
    61.481,       577,
   61.5011,       576,
   61.5213,       608,
   61.5415,       608,
   61.5616,       571,
   61.5818,       596,
    61.602,       592,
   61.6221,       576,
   61.6423,       592,
   61.6625,       621,
   61.6827,       637,
   61.7028,       591,
    61.723,       609,
   61.7432,       553,
   61.7633,       605,
   61.7835,       594,
   61.8037,       570,
   61.8238,       594,
    61.844,       575,
   61.8642,       611,
   61.8843,       564,
   61.9045,       599,
   61.9247,       586,
   61.9448,       628,
    61.965,       599,
   61.9852,       570,
   62.0054,       573,
   62.0255,       594,
   62.0457,       561,
   62.0659,       564,
    62.086,       618,
   62.1062,       610,
   62.1264,       556,
   62.1465,       586,
   62.1667,       610,
   62.1869,       530,
    62.207,       578,
   62.2272,       595,
   62.2474,       611,
   62.2675,       600,
   62.2877,       638,
   62.3079,       578,
    62.328,       609,
   62.3482,       573,
   62.3684,       607,
   62.3886,       578,
   62.4087,       604,
   62.4289,       603,
   62.4491,       632,
   62.4692,       579,
   62.4894,       578,
   62.5096,       590,
   62.5297,       591,
   62.5499,       552,
   62.5701,       575,
   62.5902,       581,
   62.6104,       544,
   62.6306,       568,
   62.6507,       570,
   62.6709,       617,
   62.6911,       558,
   62.7112,       582,
   62.7314,       568,
   62.7516,       571,
   62.7718,       607,
   62.7919,       601,
   62.8121,       568,
   62.8323,       573,
   62.8524,       581,
   62.8726,       600,
   62.8928,       569,
   62.9129,       623,
   62.9331,       617,
   62.9533,       573,
   62.9734,       624,
   62.9936,       572,
   63.0138,       583,
   63.0339,       623,
   63.0541,       594,
   63.0743,       622,
   63.0945,       592,
   63.1146,       609,
   63.1348,       581,
    63.155,       542,
   63.1751,       593,
   63.1953,       581,
   63.2155,       583,
   63.2356,       601,
   63.2558,       617,
    63.276,       593,
   63.2961,       597,
   63.3163,       598,
   63.3365,       580,
   63.3566,       626,
   63.3768,       579,
    63.397,       606,
   63.4171,       569,
   63.4373,       562,
   63.4575,       580,
   63.4777,       587,
   63.4978,       627,
    63.518,       590,
   63.5382,       570,
   63.5583,       590,
   63.5785,       611,
   63.5987,       593,
   63.6188,       556,
    63.639,       598,
   63.6592,       621,
   63.6793,       584,
   63.6995,       635,
   63.7197,       569,
   63.7398,       580,
     63.76,       547,
   63.7802,       556,
   63.8003,       602,
   63.8205,       604,
   63.8407,       598,
   63.8609,       557,
    63.881,       611,
   63.9012,       552,
   63.9214,       605,
   63.9415,       621,
   63.9617,       592,
   63.9819,       612,
    64.002,       549,
   64.0222,       574,
   64.0424,       549,
   64.0625,       613,
   64.0827,       585,
   64.1029,       544,
    64.123,       592,
   64.1432,       600,
   64.1634,       591,
   64.1836,       652,
   64.2037,       602,
   64.2239,       617,
   64.2441,       594,
   64.2642,       572,
   64.2844,       612,
   64.3046,       575,
   64.3247,       554,
   64.3449,       572,
   64.3651,       580,
   64.3852,       588,
   64.4054,       585,
   64.4256,       541,
   64.4457,       626,
   64.4659,       629,
   64.4861,       588,
   64.5062,       584,
   64.5264,       558,
   64.5466,       558,
   64.5668,       611,
   64.5869,       567,
   64.6071,       600,
   64.6273,       599,
   64.6474,       600,
   64.6676,       554,
   64.6878,       582,
   64.7079,       578,
   64.7281,       612,
   64.7483,       615,
   64.7684,       611,
   64.7886,       613,
   64.8088,       586,
   64.8289,       578,
   64.8491,       595,
   64.8693,       568,
   64.8894,       593,
   64.9096,       610,
   64.9298,       581,
     64.95,       538,
   64.9701,       581,
   64.9903,       576,
   65.0105,       558,
   65.0306,       590,
   65.0508,       580,
    65.071,       586,
   65.0911,       576,
   65.1113,       577,
   65.1315,       595,
   65.1516,       590,
   65.1718,       553,
    65.192,       595,
   65.2121,       576,
   65.2323,       579,
   65.2525,       605,
   65.2727,       622,
   65.2928,       606,
    65.313,       590,
   65.3332,       580,
   65.3533,       612,
   65.3735,       585,
   65.3937,       565,
   65.4138,       603,
    65.434,       591,
   65.4542,       635,
   65.4743,       615,
   65.4945,       582,
   65.5147,       579,
   65.5348,       589,
    65.555,       626,
   65.5752,       589,
   65.5953,       563,
   65.6155,       538,
   65.6357,       616,
   65.6559,       627,
    65.676,       564,
   65.6962,       585,
   65.7164,       569,
   65.7365,       576,
   65.7567,       580,
   65.7769,       571,
    65.797,       578,
   65.8172,       600,
   65.8374,       626,
   65.8575,       594,
   65.8777,       579,
   65.8979,       572,
    65.918,       591,
   65.9382,       581,
   65.9584,       573,
   65.9786,       612,
   65.9987,       589,
   66.0189,       596,
   66.0391,       590,
   66.0592,       569,
   66.0794,       578,
   66.0996,       558,
   66.1197,       601,
   66.1399,       566,
   66.1601,       621,
   66.1802,       592,
   66.2004,       622,
   66.2206,       631,
   66.2407,       605,
   66.2609,       548,
   66.2811,       580,
   66.3012,       597,
   66.3214,       581,
   66.3416,       591,
   66.3618,       608,
   66.3819,       587,
   66.4021,       576,
   66.4223,       616,
   66.4424,       577,
   66.4626,       598,
   66.4828,       593,
   66.5029,       609,
   66.5231,       569,
   66.5433,       606,
   66.5634,       552,
   66.5836,       622,
   66.6038,       585,
   66.6239,       569,
   66.6441,       577,
   66.6643,       607,
   66.6844,       598,
   66.7046,       610,
   66.7248,       582,
    66.745,       618,
   66.7651,       606,
   66.7853,       605,
   66.8055,       583,
   66.8256,       579,
   66.8458,       600,
    66.866,       599,
   66.8861,       598,
   66.9063,       545,
   66.9265,       557,
   66.9466,       611,
   66.9668,       565,
    66.987,       621,
   67.0071,       591,
   67.0273,       571,
   67.0475,       583,
   67.0677,       579,
   67.0878,       574,
    67.108,       588,
   67.1282,       614,
   67.1483,       586,
   67.1685,       582,
   67.1887,       606,
   67.2088,       606,
    67.229,       588,
   67.2492,       614,
   67.2693,       568,
   67.2895,       612,
   67.3097,       585,
   67.3298,       554,
     67.35,       598,
   67.3702,       581,
   67.3903,       623,
   67.4105,       581,
   67.4307,       551,
   67.4509,       618,
    67.471,       592,
   67.4912,       581,
   67.5114,       604,
   67.5315,       610,
   67.5517,       588,
   67.5719,       629,
    67.592,       540,
   67.6122,       617,
   67.6324,       568,
   67.6525,       608,
   67.6727,       573,
   67.6929,       592,
    67.713,       588,
   67.7332,       619,
   67.7534,       589,
   67.7735,       566,
   67.7937,       560,
   67.8139,       560,
   67.8341,       604,
   67.8542,       598,
   67.8744,       609,
   67.8946,       592,
   67.9147,       604,
   67.9349,       608,
   67.9551,       601,
   67.9752,       593,
   67.9954,       599,
   68.0156,       568,
   68.0357,       584,
   68.0559,       616,
   68.0761,       580,
   68.0962,       609,
   68.1164,       584,
   68.1366,       574,
   68.1568,       550,
   68.1769,       584,
   68.1971,       599,
   68.2173,       578,
   68.2374,       534,
   68.2576,       600,
   68.2778,       558,
   68.2979,       632,
   68.3181,       574,
   68.3383,       590,
   68.3584,       592,
   68.3786,       577,
   68.3988,       563,
   68.4189,       589,
   68.4391,       599,
   68.4593,       614,
   68.4794,       578,
   68.4996,       551,
   68.5198,       558,
     68.54,       575,
   68.5601,       635,
   68.5803,       595,
   68.6005,       571,
   68.6206,       565,
   68.6408,       600,
    68.661,       574,
   68.6811,       554,
   68.7013,       574,
   68.7215,       580,
   68.7416,       602,
   68.7618,       580,
    68.782,       570,
   68.8021,       583,
   68.8223,       597,
   68.8425,       565,
   68.8626,       592,
   68.8828,       581,
    68.903,       610,
   68.9232,       565,
   68.9433,       620,
   68.9635,       610,
   68.9837,       567,
   69.0038,       543,
    69.024,       573,
   69.0442,       566,
   69.0643,       627,
   69.0845,       580,
   69.1047,       593,
   69.1248,       573,
    69.145,       589,
   69.1652,       624,
   69.1853,       587,
   69.2055,       585,
   69.2257,       538,
   69.2459,       578,
    69.266,       602,
   69.2862,       596,
   69.3064,       580,
   69.3265,       581,
   69.3467,       560,
   69.3669,       587,
    69.387,       579,
   69.4072,       575,
   69.4274,       573,
   69.4475,       542,
   69.4677,       591,
   69.4879,       582,
    69.508,       566,
   69.5282,       637,
   69.5484,       560,
   69.5685,       633,
   69.5887,       615,
   69.6089,       613,
   69.6291,       589,
   69.6492,       610,
   69.6694,       585,
   69.6896,       631,
   69.7097,       580,
   69.7299,       583,
   69.7501,       585,
   69.7702,       609,
   69.7904,       581,
   69.8106,       571,
   69.8307,       588,
   69.8509,       612,
   69.8711,       587,
   69.8912,       599,
   69.9114,       632,
   69.9316,       564,
   69.9517,       543,
   69.9719,       622,
   69.9921,       581,
   70.0123,       573,
   70.0324,       538,
   70.0526,       549,
   70.0728,       559,
   70.0929,       607,
   70.1131,       604,
   70.1333,       564,
   70.1534,       631,
   70.1736,       560,
   70.1938,       602,
   70.2139,       585,
   70.2341,       595,
   70.2543,       575,
   70.2744,       561,
   70.2946,       619,
   70.3148,       589,
    70.335,       549,
   70.3551,       552,
   70.3753,       613,
   70.3955,       559,
   70.4156,       608,
   70.4358,       609,
    70.456,       574,
   70.4761,       583,
   70.4963,       584,
   70.5165,       576,
   70.5366,       649,
   70.5568,       578,
    70.577,       534,
   70.5971,       609,
   70.6173,       590,
   70.6375,       573,
   70.6576,       626,
   70.6778,       555,
    70.698,       589,
   70.7182,       648,
   70.7383,       561,
   70.7585,       557,
   70.7787,       638,
   70.7988,       566,
    70.819,       567,
   70.8392,       602,
   70.8593,       563,
   70.8795,       598,
   70.8997,       588,
   70.9198,       558,
     70.94,       593,
   70.9602,       556,
   70.9803,       533,
   71.0005,       586,
   71.0207,       562,
   71.0409,       590,
    71.061,       561,
   71.0812,       627,
   71.1014,       633,
   71.1215,       585,
   71.1417,       612,
   71.1619,       574,
    71.182,       601,
   71.2022,       616,
   71.2224,       626,
   71.2425,       603,
   71.2627,       612,
   71.2829,       660,
    71.303,       572,
   71.3232,       614,
   71.3434,       584,
   71.3635,       569,
   71.3837,       593,
   71.4039,       624,
   71.4241,       582,
   71.4442,       596,
   71.4644,       627,
   71.4846,       585,
   71.5047,       617,
   71.5249,       617,
   71.5451,       586,
   71.5652,       641,
   71.5854,       614,
   71.6056,       589,
   71.6257,       558,
   71.6459,       619,
   71.6661,       596,
   71.6862,       590,
   71.7064,       604,
   71.7266,       592,
   71.7467,       599,
   71.7669,       585,
   71.7871,       575,
   71.8073,       613,
   71.8274,       622,
   71.8476,       618,
   71.8678,       591,
   71.8879,       560,
   71.9081,       625,
   71.9283,       611,
   71.9484,       617,
   71.9686,       591,
   71.9888,       629,
   72.0089,       597,
   72.0291,       629,
   72.0493,       598,
   72.0694,       619,
   72.0896,       547,
   72.1098,       602,
     72.13,       614,
   72.1501,       609,
   72.1703,       618,
   72.1905,       595,
   72.2106,       588,
   72.2308,       612,
    72.251,       636,
   72.2711,       600,
   72.2913,       605,
   72.3115,       601,
   72.3316,       617,
   72.3518,       572,
    72.372,       600,
   72.3921,       627,
   72.4123,       615,
   72.4325,       575,
   72.4526,       614,
   72.4728,       606,
    72.493,       622,
   72.5132,       612,
   72.5333,       608,
   72.5535,       596,
   72.5737,       564,
   72.5938,       570,
    72.614,       609,
   72.6342,       638,
   72.6543,       599,
   72.6745,       598,
   72.6947,       592,
   72.7148,       585,
    72.735,       598,
   72.7552,       642,
   72.7753,       579,
   72.7955,       578,
   72.8157,       622,
   72.8358,       618,
    72.856,       597,
   72.8762,       615,
   72.8964,       578,
   72.9165,       583,
   72.9367,       637,
   72.9569,       597,
    72.977,       600,
   72.9972,       631,
   73.0174,       563,
   73.0375,       572,
   73.0577,       625,
   73.0779,       647,
    73.098,       596,
   73.1182,       598,
   73.1384,       565,
   73.1585,       592,
   73.1787,       594,
   73.1989,       603,
   73.2191,       630,
   73.2392,       584,
   73.2594,       609,
   73.2796,       651,
   73.2997,       627,
   73.3199,       606,
   73.3401,       619,
   73.3602,       631,
   73.3804,       595,
   73.4006,       610,
   73.4207,       625,
   73.4409,       672,
   73.4611,       617,
   73.4812,       612,
   73.5014,       685,
   73.5216,       660,
   73.5417,       665,
   73.5619,       624,
   73.5821,       645,
   73.6023,       656,
   73.6224,       613,
   73.6426,       643,
   73.6628,       652,
   73.6829,       680,
   73.7031,       631,
   73.7233,       661,
   73.7434,       663,
   73.7636,       700,
   73.7838,       715,
   73.8039,       680,
   73.8241,       685,
   73.8443,       714,
   73.8644,       735,
   73.8846,       778,
   73.9048,       795,
   73.9249,       807,
   73.9451,       779,
   73.9653,       801,
   73.9855,       822,
   74.0056,       823,
   74.0258,       831,
    74.046,       854,
   74.0661,       956,
   74.0863,       904,
   74.1065,       962,
   74.1266,      1037,
   74.1468,      1197,
    74.167,      1390,
   74.1871,      1607,
   74.2073,      2345,
   74.2275,      3475,
   74.2476,      5782,
   74.2678,      8471,
    74.288,     10281,
   74.3082,      8762,
   74.3283,      6016,
   74.3485,      3633,
   74.3687,      2527,
   74.3888,      2017,
    74.409,      1856,
   74.4292,      2124,
   74.4493,      2769,
   74.4695,      3770,
   74.4897,      5042,
   74.5098,      5487,
     74.53,      4538,
   74.5502,      3032,
   74.5703,      2023,
   74.5905,      1496,
   74.6107,      1239,
   74.6308,      1016,
    74.651,       928,
   74.6712,       915,
   74.6914,       861,
   74.7115,       817,
   74.7317,       792,
   74.7519,       771,
    74.772,       773,
   74.7922,       770,
   74.8124,       708,
   74.8325,       710,
   74.8527,       713,
   74.8729,       682,
    74.893,       639,
   74.9132,       687,
   74.9334,       697,
   74.9535,       680,
   74.9737,       683,
   74.9939,       643,
    75.014,       652,
   75.0342,       643,
   75.0544,       663,
   75.0746,       644,
   75.0947,       635,
   75.1149,       652,
   75.1351,       643,
   75.1552,       628,
   75.1754,       642,
   75.1956,       630,
   75.2157,       628,
   75.2359,       631,
   75.2561,       551,
   75.2762,       615,
   75.2964,       669,
   75.3166,       633,
   75.3367,       588,
   75.3569,       621,
   75.3771,       643,
   75.3973,       653,
   75.4174,       628,
   75.4376,       608,
   75.4578,       607,
   75.4779,       616,
   75.4981,       620,
   75.5183,       614,
   75.5384,       653,
   75.5586,       588,
   75.5788,       595,
   75.5989,       611,
   75.6191,       650,
   75.6393,       642,
   75.6594,       594,
   75.6796,       647,
   75.6998,       625,
   75.7199,       592,
   75.7401,       591,
   75.7603,       602,
   75.7805,       598,
   75.8006,       617,
   75.8208,       625,
    75.841,       630,
   75.8611,       616,
   75.8813,       584,
   75.9015,       585,
   75.9216,       635,
   75.9418,       619,
    75.962,       637,
   75.9821,       585,
   76.0023,       601,
   76.0225,       597,
   76.0426,       599,
   76.0628,       643,
    76.083,       605,
   76.1032,       638,
   76.1233,       581,
   76.1435,       621,
   76.1637,       614,
   76.1838,       640,
    76.204,       569,
   76.2242,       659,
   76.2443,       586,
   76.2645,       564,
   76.2847,       636,
   76.3048,       632,
    76.325,       585,
   76.3452,       614,
   76.3653,       616,
   76.3855,       609,
   76.4057,       593,
   76.4258,       586,
    76.446,       657,
   76.4662,       593,
   76.4864,       603,
   76.5065,       579,
   76.5267,       634,
   76.5469,       573,
    76.567,       589,
   76.5872,       626,
   76.6074,       614,
   76.6275,       599,
   76.6477,       596,
   76.6679,       590,
    76.688,       594,
   76.7082,       593,
   76.7284,       590,
   76.7485,       573,
   76.7687,       579,
   76.7889,       595,
    76.809,       584,
   76.8292,       623,
   76.8494,       620,
   76.8696,       590,
   76.8897,       590,
   76.9099,       611,
   76.9301,       604,
   76.9502,       573,
   76.9704,       622,
   76.9906,       577,
   77.0107,       599,
   77.0309,       586,
   77.0511,       592,
   77.0712,       615,
   77.0914,       574,
   77.1116,       605,
   77.1317,       580,
   77.1519,       603,
   77.1721,       582,
   77.1923,       589,
   77.2124,       592,
   77.2326,       598,
   77.2528,       641,
   77.2729,       576,
   77.2931,       569,
   77.3133,       615,
   77.3334,       580,
   77.3536,       585,
   77.3738,       579,
   77.3939,       620,
   77.4141,       551,
   77.4343,       598,
   77.4544,       607,
   77.4746,       590,
   77.4948,       582,
   77.5149,       561,
   77.5351,       597,
   77.5553,       559,
   77.5755,       604,
   77.5956,       600,
   77.6158,       611,
    77.636,       597,
   77.6561,       581,
   77.6763,       558,
   77.6965,       544,
   77.7166,       561,
   77.7368,       599,
    77.757,       588,
   77.7771,       603,
   77.7973,       626,
   77.8175,       587,
   77.8376,       659,
   77.8578,       600,
    77.878,       572,
   77.8981,       579,
   77.9183,       571,
   77.9385,       568,
   77.9587,       561,
   77.9788,       560,
    77.999,       601,
