;RAW4.00
[RawHeader]
Date=11/26/2025
EstimatedTotalTime=426.6
FurtherDQLReading=0
HardwareIndicator=65519
MeasuredTotalTime=4.29451
MeasurementFlag=1
NumberOfMeasuredRanges=1
NumberOfRanges=1
Time=04:30:13

[VarInfo]
Type=USER
Flags=0
Value=Lab Manager

[VarInfo]
Type=SAMPLEID
Flags=0
Value=Commander Sample ID

[VarInfo]
Type=COMMENT
Flags=0
Value=

[VarInfo]
Type=UTF
Flags=0
Value=

[VarInfo]
Type=CREATOR
Flags=0
Value=V5Converter

[VarInfo]
Type=CREATOR_VERSION
Flags=0
Value=4.4.16.0

[HardwareConfiguration]
AbsorptionFactor=9999
ActivateAbsorber=0
Alpha1=1.5406
Alpha2=1.54439
AlphaAverage=1.54184
AlphaRatio=0.5
Analyzer=0
Anode=Cu
AntiScatteringSlit=9999
BeamOpticsFlags=0
Beta=1.39222
BetaRelativeIntensity=0
DeactivateAbsorber=0
DetectorSlit=9999
DivergenceSlit=9999
GoniometerControl=0
GoniometerDiameter=282
GoniometerModel=256
GoniometerStage=7
Monochromator=0
NearSampleSlit=9999
PrimarySollerSlit=9999
SampleChanger=0
SecondSollerSlit=9999
SynchronousAxis=0
ThinFilmAttachment=9999
WaveUnit=A

[RangeHeader]
ActuallyUsedLambda=1.54184
AdditionalDetectorMask=257
DataRecordLength=4
DelayTime=0
DisplayPlaneNumber=0
EstimatedScanTime=427
ExtraParametersMask=0
GeneratorCurrent=10
GeneratorVoltage=30
Increment=0.0201685
Increment3=0
NumberOfCompletedData=1885
NumberOfCounts=1
NumberOfDetectors=0
NumberOfDrives=3
NumberOfEncoderDrives=0
NumberOfMeasuredData=1885
NumberOfVaryingParameters=0
RangeStartTime=0
RotationSpeed=0
ScanMode=1
ScanType=Locked Coupled
SimulatedMeasConditions=0
SlitChangerIn=0
SmootingWidth=0
Start=40.0015
Steps=1885
SynchronousRotation=0
Time=33

[VarInfo]
Type=PSD_DISCRIM
Flags=0
Value=0.11;0.5

[VarInfo]
Type=OPTICS_V5
Flags=0
Value=H4sIAAAAAAAEAO1d63KjOhJ+Fda/zqmtBIPtXKaITzm2J+OaOHbFTnKmtrZcBORYZzC4AOey//d99hl2X2x1QViIS8C3JBN+TCaodWm6+2vUUkfS/nieW9IjcD3o2GcV5bBakYBtOCa0H84qS396oBxV/mhqF44NnTnwgdt25gvHBrbf0X1dQq1t78uzB88qM99ffJHlp6enw6faoeM+yGq1qsh/9i9HxgzM9QNoe75uG6AStjJfb1WRbqEH7y1wpc/BWWXFR0joAM9w4cInL/Bj4UHLsSW+3oXrLBc9NBZ6t3Pgojcb3P8FDH+o+7OzitwBj9AAMt+CrxUfl1Lblu55QRehTORzoM8XqLDt2L4ObeBy/coBc6yHluEvdYtxoR6o1ePT02O5h8TkLue4tzhrTW2EZGjqqBswQr3oFvyXjl+9OdUtD2hyGln7c259hcAyrwHqHhq4EDFpA/KbJ8lNjfKD1ToCFipvdm00JDA1OUbR6Btwou9Ab2HpL824AjQ5tXK8m+bF4OrHhPzodEft64TGrBVWDOsoPhpP1bBWhrxWvISy1r0hIUP+4r8skMLHrm78xG8sGODQhXPdfSHkZBMMakgD9GxISBvSeHkPOIFIQeOidilHx44baRI9r5mSRmyEDSxUYBJZ3blu/xy4JnCvAfYzAL0wsdX3b8s5NVnMwIfj6+8T9KPV/l7IxHm5Jhp5z0OvBh9BE+kGCS98DAk920dCZMIVSikeHA9SJulgmhwp1bAq2ZMXfZT4B2LSAxc+QFu3ogSlwl6OWi7Ssb/0moPwnSLFGmsYPPedJdIj0qJQrgWE0MJ5JCOdEXICmjFtjmnJUA7J0tRxpRHQLUBtYA3AytxYcejGiMm4JZa46kmmLG0LrhEWBa3xcus++8A2MZDfDYZpCWdMkQKtj5nwHfcltGVFk+OFGseMJxH2qHoYWND7cnJosmJN5ku1uCnh1+H65qyTKx3Y545jAR1NEG5s6BPpdiDSG56bXcI59IlYwiKvWdVk7knrgKm+tPxb3VoCboigVyQ96CPXTshnFewlKri/oQta5l9LD8GnYEuZYx67mbHTJoqe6ZblPK0cjVCOarZnwPgJzFUVVqC1ESPOHKsWvx33pNH5Zl7erhEyxkg2xVq1lr7TdoHug6HrLIDrvzAWEyiR9/eIRfdMhLKr5fweuE21rslCEdaQRS08UPF//xMyUSUc9B0TNG8Quqbos4xMnTwz90Y+PzEHluy7tuWt5HgP/ND5vNXOHBXjLvaN2aNbYuh5A79Evm3IJvErCL6JJ23LP418rD3OPSHRTOHDEjnla/gw85sIdabECnU0BoKwUKWYS+vrz5fAfvBnTbXRwKJhj2nOjrJISkNktZevObqMVm/q5DL4SnFwGS02cm5pFninPwKqkpa1mOmKYIUieVuWOJh2nCVqyWzxf//ehzWm2Nxw9uJBQ7dIeQJnTA/KYaNePXrNFtfo7ca2MPfItOjcf/WMZelYS+paugfVBtErK9H60Ibz5bx5oBwenx4fndaUWv3kSK0pjePu32vVE4S4oAZGIvklvWZQ4W0Rs4b0UpC0Rk/7QJiajTD10yOsXjvdJsRYdyXGNhLfFkDGuto1yh6Bqz+IoV6M/ulxppzUt4kz1l2Js43EtwWcsa52jLNz4OupIMPET46w2qmqqttD2Kq7EmEbiW9jhK262jHCrvGaRirECHVXGHuvCFutth02NsJWrKMSVWsKbh08xTrZCZK+OsbSG7gQ2D5ZHRSgJJK3tspG1g4H057tH9XfH6CibEVXr/OjKbkXhfRCBYDfqOeDOWLs0nmABl3VvJn0rm5bl73OpP2tN9TkFYkJfAye/WbPftQtiMQzg4uVjCJaIvW07+CFjI1lEf6uyTEWsnm67F2lsnIJbSARW0kbWtlk6OEgY+yhA20/e3B1k8GZLoaD0auqCHeKD6S58wgk35HmwJjpNrYKCTmTxd/SeKxl8/ienF2WXefzdFk9bOTm6N5Lz546UqiqhAVciZbr3FOQY3BWIVUkVBrdJr+ZtC6H31rRcrGRhEeyyEjkXXKxo0bYURPZUVPYUbPYUQuzEywL8PxEyoQBQloib5PW7UUWe0HrokySmCrg8D78PeybkkWGzrvjVjIvuH4+FiIbUQEDqBXeyxN46LJSkY3uZbffvRqnSMV2TCAFbaXVSDlkQmfBvNq4EkHsASVZZdetcW+QpTTSOp+8YlOLgL9pYnk4ToQicvl10J4MrpMZJONJkeZyfMe6Ed+xvgA2skTfcYU8TFacvPmcsQFLZ8dr7r82tXQiP3O7dSw/voYXlO4q5vl5u6WEjcypLxqFfRNqVSHyCL4FKaFHctihVBMCjFp1f7FErbF+MBEXRsEvZLo55TW19tJ1sT+LmlpQuitTm7f2YWpolHD6sQ1TaySFsh/E0uKy2LulDZ0nkgHOmxQp25WV3aUEnW+xcHMnRJr5lluqhymm+EkWW+4491hde7Ul3ssWbV9+7YtfJA0UTQyNGXBfyVbbPA8ud74bklUw60j9YgWfilQ/I4dzraYmBmuZ2QhiKJW9qxqLdLI3h6IxR/YytzAXT1vD42MIIXVJnC4nR8cylyaJ7OZRhxZeJcCPHu2eWH2ZQFkmUJYJlGUCZZlA+fE2xcsEyvezJV4mUP6aCCsTKN8TxsoEyl8VZ2UC5XvCWZlA+ashrEygfE8IKxMoywTKMoGyTKAsEyjLBMoygbJMoCwTKMsEyjKBskygLBMoywTKMoGyTKAsEyjLBMoygbJMoHzr+KNMoCwTKD9tAiXLkUS/iumT7KzT+Cmg4tm7GScqd+cL/4UkG4arGcVOT+72h4PRhP4scnoyGTg0xcTzk2U+BzLzcGMl7XBjde+HGw8WbefceR5MR45lATfhiGNKyDjkmKsg/WbotmTQQ8ElNJZEifQE7N/XgX9k+LhXSSBnuYaE6hunwkb7FPSZfOxxRGTIPPKL8PePe2KymphYK0bAR+scevtxXAin6Q2diJrmRGpv50S+wmdgEkNlcw/RmVjQz3IliCz1U2CAaRv4kdXICV5EJGb6ELHy5h6E61FQZYr/YA2o98gntQ/sOmq5XMfxeudlE7OmVzSsTJpYMhZe0hcRy1SR/jGf/zPDjH/DR/7fA2QfErQ9hAVgol98R9I5hWWaMq5mhBds4KeJUp0oaQYcIb5mwIVtN52ZmPP5qH/5US30lx930PRnYm4HLtvZktP8/WxBxzgL44DNsuvjPeVdZqh+7nWGuODWWWeI97KTtI5vABumgB1a+LnBszXslNBZz+i3gpzt3wSirjOzGenzhQXuZgBYY/QC/KUgIkkjH65UJ0ChmfamMj+F+lCxGJtFbxiJ1dIisfpGkRjhMR6HvT9h3thLD5hkeHHgLInKwm1g17oJl16CldWVYB+fXrg3mE494KdZfesZevz3Iay2B1ceYybnbh1ywVU1LSlVPTypn6qNRkNN8LvHjcOTRv24dqQqvK8VhNAM7mETbitc+w7DEUCRgJl9i2FYh7v9roNCXwNnMmzhLkORh4SYKLFGsfsMwz42ifVFRj70nYaF9FrM/4zwzYaj4jcbRuW787sNw+F2cbvhyRss3uHlOks3wMyxzMQtgMsX+xm8pBxzcfnj6s/ujy654bCjSsOZ7olX4OYEsRyOEwezQMpa3mDWKOO8X3k4Wj2jProvYAvX6KYzLmrzl7v28CTPUlxNiU9Yi8wL0ecUu0XdWrmWfniNJk2pxn6HJHazGl4xZ9PpjyfkXwFHw4ba6R6gstmscZebgP09bgIKCIswkLYN2N/zNmAmj6JSs3YC+59rJ1Cp53Ii1c+wFVhGSkUjpbRAqXF4dHrSUJRqPWmBqqEcHldP68dqfQeB0sontAHGieA9hcKI4+SmzLSadMAw70kjnLfkkW8dVkPLMIDnOS4E3hoRE+Mi7j2jlLwRUvyl1/ekrIcPHRqtqcpiLudicNWekB9FHA7lZ+eh0Ri4qHQnkdHp3mdFwxkkShPAfO0EGXBRYgTUqKlErdE1Wb0CGJXZGHSdNqGDKCsJ1TJnP6vqMuJUZpxuDuAUxgVFpsREEgUYMFu+rxszPNBZ5WDPRwluc5pzmitr4SQ+y+l5TBQhKMMCjfMcZLfIWj48ALPjYkzSv8ZE3eHvWs9sIu2S3oNHTCEVRwtgwGnwt6KsUpyC4BLvvcgEK46DYs5u+K03mpAfRZxdFKHbnGBVi0yvQisOP5lEYfRDEPwf22IqXU7pckqXI7qcECvsd+8VLsZPznhGTjB6jZVIzZz8ZA+dc9yig6ZEJvFifFQxXo8YAd9H0PIkfi6GHAXNPKxILbzB7vVR6AbplI5NtLGOuVT/5i2e1Rn4EFu+VFtBkewhB6uqmiyUa3yqI/WAkWUTj/6JxSqYYK6D6Pv/u9RXv2COAAA=

[PSD]
ActualTwoTheta=9999
FirstUsedChannel=0
FixedPSD=0
PSDOpening=4.99171
PSDType=5

[Drive]
DriveFlags=1
DriveName=2Theta
DriveNumber=2
DriveOffset=0
OffsetIndex=0
OscillationAmplitude=0
OscillationSpeed=0
StartPosition=40.0015

[Drive]
DriveFlags=1
DriveName=Theta
DriveNumber=1
DriveOffset=0
OffsetIndex=0
OscillationAmplitude=0
OscillationSpeed=0
StartPosition=20.0007

[Drive]
DriveFlags=1
DriveName=Phi
DriveNumber=3
DriveOffset=0
OffsetIndex=0
OscillationAmplitude=0
OscillationSpeed=0
StartPosition=0

[Data]
     Angle,       PSD,
   40.0015,       688,
   40.0217,       641,
   40.0418,       657,
    40.062,       638,
   40.0822,       665,
   40.1023,       641,
   40.1225,       623,
   40.1427,       656,
   40.1628,       653,
    40.183,       588,
   40.2032,       631,
   40.2233,       611,
   40.2435,       606,
   40.2637,       622,
   40.2838,       647,
    40.304,       639,
   40.3242,       692,
   40.3444,       672,
   40.3645,       683,
   40.3847,       609,
   40.4049,       673,
    40.425,       658,
   40.4452,       643,
   40.4654,       648,
   40.4855,       631,
   40.5057,       674,
   40.5259,       649,
    40.546,       640,
   40.5662,       676,
   40.5864,       633,
   40.6065,       640,
   40.6267,       655,
   40.6469,       661,
   40.6671,       630,
   40.6872,       643,
   40.7074,       653,
   40.7276,       640,
   40.7477,       642,
   40.7679,       668,
   40.7881,       625,
   40.8082,       658,
   40.8284,       689,
   40.8486,       650,
   40.8687,       635,
   40.8889,       674,
   40.9091,       677,
   40.9292,       632,
   40.9494,       681,
   40.9696,       686,
   40.9897,       688,
   41.0099,       676,
   41.0301,       617,
   41.0503,       679,
   41.0704,       675,
   41.0906,       629,
   41.1108,       681,
   41.1309,       637,
   41.1511,       654,
   41.1713,       684,
   41.1914,       688,
   41.2116,       634,
   41.2318,       693,
   41.2519,       690,
   41.2721,       678,
   41.2923,       652,
   41.3124,       677,
   41.3326,       691,
   41.3528,       688,
   41.3729,       685,
   41.3931,       712,
   41.4133,       644,
   41.4335,       694,
   41.4536,       671,
   41.4738,       642,
    41.494,       698,
   41.5141,       644,
   41.5343,       694,
   41.5545,       697,
   41.5746,       663,
   41.5948,       702,
    41.615,       715,
   41.6351,       640,
   41.6553,       693,
   41.6755,       702,
   41.6956,       680,
   41.7158,       668,
    41.736,       699,
   41.7562,       720,
   41.7763,       639,
   41.7965,       692,
   41.8167,       687,
   41.8368,       700,
    41.857,       704,
   41.8772,       784,
   41.8973,       724,
   41.9175,       795,
   41.9377,       776,
   41.9578,       785,
    41.978,       781,
   41.9982,       840,
   42.0183,       792,
   42.0385,       817,
   42.0587,       822,
   42.0788,       822,
    42.099,       788,
   42.1192,       812,
   42.1394,       818,
   42.1595,       821,
   42.1797,       828,
   42.1999,       763,
     42.22,       830,
   42.2402,       861,
   42.2604,       800,
   42.2805,       861,
   42.3007,       826,
   42.3209,       853,
    42.341,       818,
   42.3612,       807,
   42.3814,       924,
   42.4015,       855,
   42.4217,       910,
   42.4419,       868,
    42.462,       834,
   42.4822,       870,
   42.5024,       894,
   42.5226,       863,
   42.5427,       936,
   42.5629,       842,
   42.5831,       890,
   42.6032,       863,
   42.6234,       895,
   42.6436,       957,
   42.6637,       936,
   42.6839,       952,
   42.7041,       918,
   42.7242,       970,
   42.7444,       949,
   42.7646,       997,
   42.7847,       960,
   42.8049,      1024,
   42.8251,      1046,
   42.8453,      1003,
   42.8654,      1033,
   42.8856,      1109,
   42.9058,      1173,
   42.9259,      1159,
   42.9461,      1174,
   42.9663,      1249,
   42.9864,      1348,
   43.0066,      1411,
   43.0268,      1430,
   43.0469,      1558,
   43.0671,      1661,
   43.0873,      1714,
   43.1074,      1858,
   43.1276,      1922,
   43.1478,      2073,
   43.1679,      2244,
   43.1881,      2425,
   43.2083,      2745,
   43.2285,      3098,
   43.2486,      3486,
   43.2688,      3806,
    43.289,      4209,
   43.3091,      4959,
   43.3293,      5836,
   43.3495,      6939,
   43.3696,      8476,
   43.3898,     11476,
     43.41,     18212,
   43.4301,     30176,
   43.4503,     41327,
   43.4705,     37090,
   43.4906,     23920,
   43.5108,     16966,
    43.531,     17499,
   43.5511,     22189,
   43.5713,     23622,
   43.5915,     18221,
   43.6117,     11262,
   43.6318,      7685,
    43.652,      6028,
   43.6722,      4997,
   43.6923,      4313,
   43.7125,      3779,
   43.7327,      3278,
   43.7528,      3018,
    43.773,      2714,
   43.7932,      2509,
   43.8133,      2304,
   43.8335,      2053,
   43.8537,      1919,
   43.8738,      1827,
    43.894,      1646,
   43.9142,      1611,
   43.9344,      1509,
   43.9545,      1411,
   43.9747,      1321,
   43.9949,      1280,
    44.015,      1258,
   44.0352,      1143,
   44.0554,      1175,
   44.0755,      1142,
   44.0957,      1093,
   44.1159,      1125,
    44.136,      1115,
   44.1562,      1029,
   44.1764,      1079,
   44.1965,      1029,
   44.2167,      1038,
   44.2369,      1058,
    44.257,      1018,
   44.2772,       941,
   44.2974,       994,
   44.3176,       939,
   44.3377,       889,
   44.3579,       990,
   44.3781,       917,
   44.3982,       913,
   44.4184,       972,
   44.4386,       909,
   44.4587,       889,
   44.4789,       893,
   44.4991,       902,
   44.5192,       879,
   44.5394,       839,
   44.5596,       891,
   44.5797,       839,
   44.5999,       887,
   44.6201,       834,
   44.6402,       873,
   44.6604,       844,
   44.6806,       852,
   44.7008,       792,
   44.7209,       813,
   44.7411,       819,
   44.7613,       792,
   44.7814,       813,
   44.8016,       781,
   44.8218,       763,
   44.8419,       807,
   44.8621,       818,
   44.8823,       819,
   44.9024,       811,
   44.9226,       752,
   44.9428,       768,
   44.9629,       778,
   44.9831,       822,
   45.0033,       793,
   45.0235,       797,
   45.0436,       771,
   45.0638,       774,
    45.084,       753,
   45.1041,       794,
   45.1243,       760,
   45.1445,       717,
   45.1646,       756,
   45.1848,       810,
    45.205,       742,
   45.2251,       786,
   45.2453,       786,
   45.2655,       829,
   45.2856,       737,
   45.3058,       786,
    45.326,       763,
   45.3461,       792,
   45.3663,       754,
   45.3865,       804,
   45.4067,       768,
   45.4268,       783,
    45.447,       790,
   45.4672,       783,
   45.4873,       791,
   45.5075,       748,
   45.5277,       748,
   45.5478,       827,
    45.568,       765,
   45.5882,       778,
   45.6083,       716,
   45.6285,       799,
   45.6487,       738,
   45.6688,       789,
    45.689,       761,
   45.7092,       745,
   45.7294,       739,
   45.7495,       796,
   45.7697,       717,
   45.7899,       693,
     45.81,       779,
   45.8302,       707,
   45.8504,       798,
   45.8705,       757,
   45.8907,       778,
   45.9109,       737,
    45.931,       702,
   45.9512,       726,
   45.9714,       713,
   45.9915,       702,
   46.0117,       736,
   46.0319,       808,
    46.052,       744,
   46.0722,       722,
   46.0924,       744,
   46.1126,       764,
   46.1327,       709,
   46.1529,       692,
   46.1731,       732,
   46.1932,       732,
   46.2134,       717,
   46.2336,       726,
   46.2537,       735,
   46.2739,       753,
   46.2941,       795,
   46.3142,       733,
   46.3344,       712,
   46.3546,       754,
   46.3747,       704,
   46.3949,       724,
   46.4151,       724,
   46.4352,       711,
   46.4554,       669,
   46.4756,       685,
   46.4958,       733,
   46.5159,       723,
   46.5361,       732,
   46.5563,       725,
   46.5764,       689,
   46.5966,       714,
   46.6168,       728,
   46.6369,       756,
   46.6571,       723,
   46.6773,       700,
   46.6974,       683,
   46.7176,       730,
   46.7378,       722,
   46.7579,       691,
   46.7781,       690,
   46.7983,       685,
   46.8185,       755,
   46.8386,       707,
   46.8588,       730,
    46.879,       723,
   46.8991,       742,
   46.9193,       680,
   46.9395,       756,
   46.9596,       765,
   46.9798,       642,
        47,       730,
   47.0201,       760,
   47.0403,       708,
   47.0605,       705,
   47.0806,       687,
   47.1008,       729,
    47.121,       722,
   47.1411,       694,
   47.1613,       727,
   47.1815,       684,
   47.2017,       721,
   47.2218,       705,
    47.242,       702,
   47.2622,       657,
   47.2823,       734,
   47.3025,       740,
   47.3227,       728,
   47.3428,       706,
    47.363,       731,
   47.3832,       747,
   47.4033,       701,
   47.4235,       746,
   47.4437,       707,
   47.4638,       658,
    47.484,       734,
   47.5042,       714,
   47.5243,       703,
   47.5445,       686,
   47.5647,       684,
   47.5849,       664,
    47.605,       722,
   47.6252,       728,
   47.6454,       674,
   47.6655,       685,
   47.6857,       706,
   47.7059,       694,
    47.726,       738,
   47.7462,       690,
   47.7664,       689,
   47.7865,       714,
   47.8067,       664,
   47.8269,       729,
    47.847,       722,
   47.8672,       694,
   47.8874,       688,
   47.9076,       714,
   47.9277,       709,
   47.9479,       732,
   47.9681,       701,
   47.9882,       731,
   48.0084,       755,
   48.0286,       720,
   48.0487,       693,
   48.0689,       706,
   48.0891,       706,
   48.1092,       716,
   48.1294,       667,
   48.1496,       723,
   48.1697,       720,
   48.1899,       695,
   48.2101,       730,
   48.2302,       666,
   48.2504,       677,
   48.2706,       679,
   48.2908,       699,
   48.3109,       702,
   48.3311,       700,
   48.3513,       694,
   48.3714,       683,
   48.3916,       670,
   48.4118,       722,
   48.4319,       689,
   48.4521,       688,
   48.4723,       725,
   48.4924,       761,
   48.5126,       762,
   48.5328,       679,
   48.5529,       664,
   48.5731,       716,
   48.5933,       676,
   48.6134,       681,
   48.6336,       714,
   48.6538,       701,
    48.674,       740,
   48.6941,       720,
   48.7143,       747,
   48.7345,       740,
   48.7546,       747,
   48.7748,       732,
    48.795,       744,
   48.8151,       728,
   48.8353,       739,
   48.8555,       760,
   48.8756,       713,
   48.8958,       682,
    48.916,       757,
   48.9361,       771,
   48.9563,       720,
   48.9765,       742,
   48.9967,       720,
   49.0168,       733,
    49.037,       737,
   49.0572,       777,
   49.0773,       746,
   49.0975,       735,
   49.1177,       733,
   49.1378,       749,
    49.158,       717,
   49.1782,       720,
   49.1983,       774,
   49.2185,       751,
   49.2387,       789,
   49.2588,       773,
    49.279,       791,
   49.2992,       712,
   49.3193,       815,
   49.3395,       785,
   49.3597,       807,
   49.3799,       786,
      49.4,       835,
   49.4202,       802,
   49.4404,       722,
   49.4605,       754,
   49.4807,       784,
   49.5009,       813,
    49.521,       778,
   49.5412,       799,
   49.5614,       750,
   49.5815,       831,
   49.6017,       842,
   49.6219,       787,
    49.642,       752,
   49.6622,       765,
   49.6824,       828,
   49.7025,       857,
   49.7227,       855,
   49.7429,       861,
   49.7631,       845,
   49.7832,       868,
   49.8034,       909,
   49.8236,       864,
   49.8437,       828,
   49.8639,       876,
   49.8841,       910,
   49.9042,       903,
   49.9244,       922,
   49.9446,      1009,
   49.9647,       961,
   49.9849,       970,
   50.0051,      1028,
   50.0252,      1005,
   50.0454,      1058,
   50.0656,      1048,
   50.0858,      1134,
   50.1059,      1128,
   50.1261,      1247,
   50.1463,      1244,
   50.1664,      1251,
   50.1866,      1299,
   50.2068,      1375,
   50.2269,      1370,
   50.2471,      1438,
   50.2673,      1532,
   50.2874,      1569,
   50.3076,      1654,
   50.3278,      1808,
   50.3479,      1830,
   50.3681,      1914,
   50.3883,      2124,
   50.4084,      2224,
   50.4286,      2446,
   50.4488,      2605,
    50.469,      2808,
   50.4891,      3148,
   50.5093,      3739,
   50.5295,      5060,
   50.5496,      6754,
   50.5698,      8348,
     50.59,      8289,
   50.6101,      6970,
   50.6303,      5324,
   50.6505,      4437,
   50.6706,      4672,
   50.6908,      5160,
    50.711,      5537,
   50.7311,      5086,
   50.7513,      4046,
   50.7715,      3096,
   50.7917,      2583,
   50.8118,      2258,
    50.832,      2042,
   50.8522,      1925,
   50.8723,      1827,
   50.8925,      1697,
   50.9127,      1646,
   50.9328,      1512,
    50.953,      1489,
   50.9732,      1379,
   50.9933,      1336,
   51.0135,      1185,
   51.0337,      1246,
   51.0538,      1160,
    51.074,      1111,
   51.0942,      1078,
   51.1143,      1034,
   51.1345,      1057,
   51.1547,       948,
   51.1749,       966,
    51.195,       894,
   51.2152,       897,
   51.2354,       932,
   51.2555,       887,
   51.2757,       833,
   51.2959,       852,
    51.316,       896,
   51.3362,       810,
   51.3564,       832,
   51.3765,       800,
   51.3967,       749,
   51.4169,       840,
    51.437,       812,
   51.4572,       846,
   51.4774,       774,
   51.4975,       808,
   51.5177,       800,
   51.5379,       795,
   51.5581,       761,
   51.5782,       753,
   51.5984,       732,
   51.6186,       740,
   51.6387,       793,
   51.6589,       753,
   51.6791,       761,
   51.6992,       724,
   51.7194,       733,
   51.7396,       737,
   51.7597,       764,
   51.7799,       711,
   51.8001,       699,
   51.8202,       747,
   51.8404,       701,
   51.8606,       663,
   51.8808,       713,
   51.9009,       723,
   51.9211,       701,
   51.9413,       714,
   51.9614,       654,
   51.9816,       728,
   52.0018,       705,
   52.0219,       771,
   52.0421,       678,
   52.0623,       677,
   52.0824,       712,
   52.1026,       699,
   52.1228,       676,
   52.1429,       673,
   52.1631,       709,
   52.1833,       689,
   52.2034,       709,
   52.2236,       703,
   52.2438,       703,
    52.264,       695,
   52.2841,       668,
   52.3043,       767,
   52.3245,       702,
   52.3446,       725,
   52.3648,       640,
    52.385,       697,
   52.4051,       667,
   52.4253,       683,
   52.4455,       707,
   52.4656,       674,
   52.4858,       658,
    52.506,       682,
   52.5261,       689,
   52.5463,       673,
   52.5665,       697,
   52.5866,       614,
   52.6068,       688,
    52.627,       688,
   52.6472,       665,
   52.6673,       661,
   52.6875,       667,
   52.7077,       659,
   52.7278,       640,
    52.748,       695,
   52.7682,       697,
   52.7883,       677,
   52.8085,       690,
   52.8287,       689,
   52.8488,       639,
    52.869,       643,
   52.8892,       633,
   52.9093,       686,
   52.9295,       670,
   52.9497,       655,
   52.9699,       653,
     52.99,       643,
   53.0102,       611,
   53.0304,       660,
   53.0505,       667,
   53.0707,       657,
   53.0909,       675,
    53.111,       609,
   53.1312,       652,
   53.1514,       659,
   53.1715,       669,
   53.1917,       678,
   53.2119,       647,
    53.232,       678,
   53.2522,       706,
   53.2724,       650,
   53.2925,       627,
   53.3127,       645,
   53.3329,       636,
   53.3531,       644,
   53.3732,       701,
   53.3934,       692,
   53.4136,       667,
   53.4337,       685,
   53.4539,       655,
   53.4741,       625,
   53.4942,       683,
   53.5144,       648,
   53.5346,       677,
   53.5547,       626,
   53.5749,       665,
   53.5951,       631,
   53.6152,       665,
   53.6354,       679,
   53.6556,       669,
   53.6757,       617,
   53.6959,       675,
   53.7161,       671,
   53.7363,       673,
   53.7564,       648,
   53.7766,       610,
   53.7968,       672,
   53.8169,       662,
   53.8371,       617,
   53.8573,       626,
   53.8774,       662,
   53.8976,       655,
   53.9178,       657,
   53.9379,       666,
   53.9581,       639,
   53.9783,       661,
   53.9984,       656,
   54.0186,       654,
   54.0388,       675,
    54.059,       700,
   54.0791,       678,
   54.0993,       648,
   54.1195,       675,
   54.1396,       647,
   54.1598,       681,
     54.18,       703,
   54.2001,       631,
   54.2203,       637,
   54.2405,       646,
   54.2606,       691,
   54.2808,       673,
    54.301,       620,
   54.3211,       656,
   54.3413,       664,
   54.3615,       606,
   54.3816,       684,
   54.4018,       652,
    54.422,       633,
   54.4422,       591,
   54.4623,       654,
   54.4825,       649,
   54.5027,       634,
   54.5228,       603,
    54.543,       608,
   54.5632,       632,
   54.5833,       675,
   54.6035,       681,
   54.6237,       669,
   54.6438,       690,
    54.664,       611,
   54.6842,       630,
   54.7043,       692,
   54.7245,       662,
   54.7447,       652,
   54.7648,       623,
    54.785,       637,
   54.8052,       648,
   54.8254,       664,
   54.8455,       639,
   54.8657,       662,
   54.8859,       623,
    54.906,       644,
   54.9262,       657,
   54.9464,       647,
   54.9665,       630,
   54.9867,       654,
   55.0069,       679,
    55.027,       668,
   55.0472,       637,
   55.0674,       657,
   55.0875,       635,
   55.1077,       673,
   55.1279,       640,
   55.1481,       652,
   55.1682,       640,
   55.1884,       649,
   55.2086,       693,
   55.2287,       676,
   55.2489,       693,
   55.2691,       694,
   55.2892,       654,
   55.3094,       623,
   55.3296,       652,
   55.3497,       619,
   55.3699,       620,
   55.3901,       647,
   55.4102,       661,
   55.4304,       641,
   55.4506,       608,
   55.4707,       661,
   55.4909,       626,
   55.5111,       627,
   55.5313,       637,
   55.5514,       666,
   55.5716,       679,
   55.5918,       623,
   55.6119,       668,
   55.6321,       650,
   55.6523,       648,
   55.6724,       647,
   55.6926,       658,
   55.7128,       671,
   55.7329,       638,
   55.7531,       625,
   55.7733,       697,
   55.7934,       626,
   55.8136,       606,
   55.8338,       642,
    55.854,       641,
   55.8741,       623,
   55.8943,       636,
   55.9145,       651,
   55.9346,       665,
   55.9548,       619,
    55.975,       619,
   55.9951,       592,
   56.0153,       638,
   56.0355,       654,
   56.0556,       642,
   56.0758,       665,
    56.096,       615,
   56.1161,       670,
   56.1363,       646,
   56.1565,       618,
   56.1766,       615,
   56.1968,       616,
    56.217,       611,
   56.2372,       644,
   56.2573,       648,
   56.2775,       612,
   56.2977,       654,
   56.3178,       661,
    56.338,       647,
   56.3582,       650,
   56.3783,       617,
   56.3985,       667,
   56.4187,       649,
   56.4388,       622,
    56.459,       631,
   56.4792,       601,
   56.4993,       621,
   56.5195,       651,
   56.5397,       667,
   56.5598,       626,
     56.58,       661,
   56.6002,       656,
   56.6204,       652,
   56.6405,       642,
   56.6607,       643,
   56.6809,       609,
    56.701,       617,
   56.7212,       618,
   56.7414,       640,
   56.7615,       648,
   56.7817,       592,
   56.8019,       639,
    56.822,       612,
   56.8422,       583,
   56.8624,       683,
   56.8825,       635,
   56.9027,       605,
   56.9229,       668,
   56.9431,       678,
   56.9632,       620,
   56.9834,       685,
   57.0036,       624,
   57.0237,       654,
   57.0439,       643,
   57.0641,       667,
   57.0842,       629,
   57.1044,       616,
   57.1246,       642,
   57.1447,       629,
   57.1649,       624,
   57.1851,       658,
   57.2052,       629,
   57.2254,       656,
   57.2456,       625,
   57.2657,       674,
   57.2859,       632,
   57.3061,       652,
   57.3263,       654,
   57.3464,       639,
   57.3666,       635,
   57.3868,       599,
   57.4069,       602,
   57.4271,       642,
   57.4473,       661,
   57.4674,       583,
   57.4876,       632,
   57.5078,       598,
   57.5279,       662,
   57.5481,       625,
   57.5683,       626,
   57.5884,       609,
   57.6086,       641,
   57.6288,       642,
   57.6489,       625,
   57.6691,       600,
   57.6893,       580,
   57.7095,       675,
   57.7296,       607,
   57.7498,       644,
     57.77,       588,
   57.7901,       643,
   57.8103,       615,
   57.8305,       645,
   57.8506,       652,
   57.8708,       650,
    57.891,       652,
   57.9111,       629,
   57.9313,       684,
   57.9515,       633,
   57.9716,       669,
   57.9918,       663,
    58.012,       651,
   58.0322,       602,
   58.0523,       606,
   58.0725,       618,
   58.0927,       628,
   58.1128,       597,
    58.133,       638,
   58.1532,       661,
   58.1733,       620,
   58.1935,       624,
   58.2137,       642,
   58.2338,       616,
    58.254,       619,
   58.2742,       650,
   58.2943,       623,
   58.3145,       677,
   58.3347,       603,
   58.3548,       605,
    58.375,       643,
   58.3952,       631,
   58.4154,       654,
   58.4355,       642,
   58.4557,       636,
   58.4759,       632,
    58.496,       605,
   58.5162,       656,
   58.5364,       622,
   58.5565,       606,
   58.5767,       607,
   58.5969,       660,
    58.617,       613,
   58.6372,       588,
   58.6574,       604,
   58.6775,       607,
   58.6977,       676,
   58.7179,       630,
    58.738,       608,
   58.7582,       593,
   58.7784,       628,
   58.7986,       625,
   58.8187,       616,
   58.8389,       631,
   58.8591,       646,
   58.8792,       607,
   58.8994,       633,
   58.9196,       629,
   58.9397,       623,
   58.9599,       643,
   58.9801,       659,
   59.0002,       625,
   59.0204,       628,
   59.0406,       649,
   59.0607,       654,
   59.0809,       649,
   59.1011,       637,
   59.1213,       620,
   59.1414,       663,
   59.1616,       645,
   59.1818,       606,
   59.2019,       619,
   59.2221,       675,
   59.2423,       640,
   59.2624,       626,
   59.2826,       593,
   59.3028,       622,
   59.3229,       649,
   59.3431,       663,
   59.3633,       670,
   59.3834,       608,
   59.4036,       616,
   59.4238,       611,
   59.4439,       601,
   59.4641,       655,
   59.4843,       605,
   59.5045,       640,
   59.5246,       608,
   59.5448,       644,
    59.565,       584,
   59.5851,       616,
   59.6053,       608,
   59.6255,       650,
   59.6456,       658,
   59.6658,       626,
    59.686,       646,
   59.7061,       635,
   59.7263,       622,
   59.7465,       595,
   59.7666,       595,
   59.7868,       614,
    59.807,       588,
   59.8271,       614,
   59.8473,       666,
   59.8675,       652,
   59.8877,       605,
   59.9078,       609,
    59.928,       617,
   59.9482,       625,
   59.9683,       572,
   59.9885,       615,
   60.0087,       609,
   60.0288,       609,
    60.049,       609,
   60.0692,       648,
   60.0893,       637,
   60.1095,       630,
   60.1297,       644,
   60.1498,       601,
     60.17,       579,
   60.1902,       596,
   60.2104,       654,
   60.2305,       647,
   60.2507,       603,
   60.2709,       641,
    60.291,       639,
   60.3112,       638,
   60.3314,       593,
   60.3515,       612,
   60.3717,       643,
   60.3919,       605,
    60.412,       651,
   60.4322,       589,
   60.4524,       669,
   60.4725,       592,
   60.4927,       636,
   60.5129,       643,
    60.533,       640,
   60.5532,       608,
   60.5734,       628,
   60.5936,       611,
   60.6137,       639,
   60.6339,       645,
   60.6541,       636,
   60.6742,       600,
   60.6944,       620,
   60.7146,       605,
   60.7347,       602,
   60.7549,       588,
   60.7751,       654,
   60.7952,       644,
   60.8154,       628,
   60.8356,       639,
   60.8557,       625,
   60.8759,       652,
   60.8961,       613,
   60.9163,       642,
   60.9364,       584,
   60.9566,       652,
   60.9768,       627,
   60.9969,       605,
   61.0171,       618,
   61.0373,       599,
   61.0574,       611,
   61.0776,       592,
   61.0978,       630,
   61.1179,       640,
   61.1381,       633,
   61.1583,       625,
   61.1784,       648,
   61.1986,       644,
   61.2188,       651,
   61.2389,       625,
   61.2591,       610,
   61.2793,       637,
   61.2995,       605,
   61.3196,       603,
   61.3398,       613,
     61.36,       626,
   61.3801,       693,
   61.4003,       594,
   61.4205,       635,
   61.4406,       664,
   61.4608,       609,
    61.481,       648,
   61.5011,       617,
   61.5213,       635,
   61.5415,       628,
   61.5616,       614,
   61.5818,       622,
    61.602,       618,
   61.6221,       631,
   61.6423,       669,
   61.6625,       608,
   61.6827,       634,
   61.7028,       628,
    61.723,       606,
   61.7432,       596,
   61.7633,       632,
   61.7835,       588,
   61.8037,       678,
   61.8238,       598,
    61.844,       637,
   61.8642,       622,
   61.8843,       594,
   61.9045,       620,
   61.9247,       584,
   61.9448,       592,
    61.965,       670,
   61.9852,       610,
   62.0054,       592,
   62.0255,       586,
   62.0457,       644,
   62.0659,       611,
    62.086,       636,
   62.1062,       595,
   62.1264,       642,
   62.1465,       650,
   62.1667,       596,
   62.1869,       633,
    62.207,       596,
   62.2272,       613,
   62.2474,       651,
   62.2675,       623,
   62.2877,       598,
   62.3079,       581,
    62.328,       651,
   62.3482,       593,
   62.3684,       632,
   62.3886,       635,
   62.4087,       626,
   62.4289,       593,
   62.4491,       604,
   62.4692,       654,
   62.4894,       668,
   62.5096,       588,
   62.5297,       592,
   62.5499,       616,
   62.5701,       646,
   62.5902,       587,
   62.6104,       624,
   62.6306,       583,
   62.6507,       585,
   62.6709,       641,
   62.6911,       634,
   62.7112,       648,
   62.7314,       559,
   62.7516,       582,
   62.7718,       587,
   62.7919,       599,
   62.8121,       623,
   62.8323,       620,
   62.8524,       633,
   62.8726,       620,
   62.8928,       608,
   62.9129,       615,
   62.9331,       625,
   62.9533,       616,
   62.9734,       578,
   62.9936,       672,
   63.0138,       618,
   63.0339,       621,
   63.0541,       605,
   63.0743,       614,
   63.0945,       659,
   63.1146,       605,
   63.1348,       580,
    63.155,       574,
   63.1751,       664,
   63.1953,       621,
   63.2155,       620,
   63.2356,       630,
   63.2558,       624,
    63.276,       598,
   63.2961,       623,
   63.3163,       616,
   63.3365,       587,
   63.3566,       623,
   63.3768,       621,
    63.397,       603,
   63.4171,       596,
   63.4373,       598,
   63.4575,       576,
   63.4777,       609,
   63.4978,       629,
    63.518,       623,
   63.5382,       611,
   63.5583,       576,
   63.5785,       604,
   63.5987,       626,
   63.6188,       608,
    63.639,       623,
   63.6592,       646,
   63.6793,       682,
   63.6995,       622,
   63.7197,       618,
   63.7398,       595,
     63.76,       605,
   63.7802,       622,
   63.8003,       573,
   63.8205,       653,
   63.8407,       588,
   63.8609,       598,
    63.881,       600,
   63.9012,       581,
   63.9214,       606,
   63.9415,       603,
   63.9617,       652,
   63.9819,       640,
    64.002,       634,
   64.0222,       592,
   64.0424,       578,
   64.0625,       656,
   64.0827,       599,
   64.1029,       601,
    64.123,       618,
   64.1432,       604,
   64.1634,       588,
   64.1836,       614,
   64.2037,       644,
   64.2239,       575,
   64.2441,       615,
   64.2642,       577,
   64.2844,       590,
   64.3046,       617,
   64.3247,       613,
   64.3449,       601,
   64.3651,       624,
   64.3852,       657,
   64.4054,       623,
   64.4256,       587,
   64.4457,       665,
   64.4659,       637,
   64.4861,       620,
   64.5062,       654,
   64.5264,       569,
   64.5466,       627,
   64.5668,       633,
   64.5869,       594,
   64.6071,       620,
   64.6273,       615,
   64.6474,       654,
   64.6676,       651,
   64.6878,       637,
   64.7079,       599,
   64.7281,       664,
   64.7483,       652,
   64.7684,       590,
   64.7886,       618,
   64.8088,       648,
   64.8289,       607,
   64.8491,       594,
   64.8693,       654,
   64.8894,       635,
   64.9096,       667,
   64.9298,       626,
     64.95,       618,
   64.9701,       609,
   64.9903,       611,
   65.0105,       601,
   65.0306,       652,
   65.0508,       588,
    65.071,       604,
   65.0911,       633,
   65.1113,       568,
   65.1315,       612,
   65.1516,       619,
   65.1718,       605,
    65.192,       623,
   65.2121,       632,
   65.2323,       617,
   65.2525,       606,
   65.2727,       572,
   65.2928,       606,
    65.313,       626,
   65.3332,       623,
   65.3533,       646,
   65.3735,       596,
   65.3937,       614,
   65.4138,       633,
    65.434,       578,
   65.4542,       623,
   65.4743,       624,
   65.4945,       606,
   65.5147,       625,
   65.5348,       608,
    65.555,       618,
   65.5752,       592,
   65.5953,       625,
   65.6155,       670,
   65.6357,       634,
   65.6559,       613,
    65.676,       636,
   65.6962,       606,
   65.7164,       613,
   65.7365,       626,
   65.7567,       635,
   65.7769,       619,
    65.797,       640,
   65.8172,       581,
   65.8374,       593,
   65.8575,       608,
   65.8777,       620,
   65.8979,       617,
    65.918,       641,
   65.9382,       633,
   65.9584,       640,
   65.9786,       655,
   65.9987,       593,
   66.0189,       622,
   66.0391,       649,
   66.0592,       653,
   66.0794,       659,
   66.0996,       651,
   66.1197,       632,
   66.1399,       638,
   66.1601,       615,
   66.1802,       603,
   66.2004,       658,
   66.2206,       618,
   66.2407,       641,
   66.2609,       635,
   66.2811,       618,
   66.3012,       632,
   66.3214,       651,
   66.3416,       618,
   66.3618,       627,
   66.3819,       627,
   66.4021,       605,
   66.4223,       616,
   66.4424,       617,
   66.4626,       603,
   66.4828,       626,
   66.5029,       612,
   66.5231,       595,
   66.5433,       654,
   66.5634,       590,
   66.5836,       631,
   66.6038,       608,
   66.6239,       600,
   66.6441,       613,
   66.6643,       641,
   66.6844,       603,
   66.7046,       620,
   66.7248,       621,
    66.745,       636,
   66.7651,       654,
   66.7853,       655,
   66.8055,       622,
   66.8256,       641,
   66.8458,       647,
    66.866,       605,
   66.8861,       595,
   66.9063,       604,
   66.9265,       583,
   66.9466,       629,
   66.9668,       600,
    66.987,       602,
   67.0071,       633,
   67.0273,       618,
   67.0475,       639,
   67.0677,       614,
   67.0878,       644,
    67.108,       577,
   67.1282,       636,
   67.1483,       576,
   67.1685,       599,
   67.1887,       632,
   67.2088,       573,
    67.229,       615,
   67.2492,       609,
   67.2693,       614,
   67.2895,       590,
   67.3097,       611,
   67.3298,       614,
     67.35,       655,
   67.3702,       598,
   67.3903,       595,
   67.4105,       658,
   67.4307,       629,
   67.4509,       620,
    67.471,       628,
   67.4912,       616,
   67.5114,       627,
   67.5315,       629,
   67.5517,       521,
   67.5719,       615,
    67.592,       630,
   67.6122,       626,
   67.6324,       562,
   67.6525,       602,
   67.6727,       571,
   67.6929,       578,
    67.713,       628,
   67.7332,       598,
   67.7534,       609,
   67.7735,       644,
   67.7937,       610,
   67.8139,       660,
   67.8341,       630,
   67.8542,       600,
   67.8744,       586,
   67.8946,       592,
   67.9147,       590,
   67.9349,       607,
   67.9551,       639,
   67.9752,       616,
   67.9954,       618,
   68.0156,       608,
   68.0357,       638,
   68.0559,       621,
   68.0761,       607,
   68.0962,       593,
   68.1164,       602,
   68.1366,       595,
   68.1568,       576,
   68.1769,       610,
   68.1971,       589,
   68.2173,       640,
   68.2374,       634,
   68.2576,       603,
   68.2778,       596,
   68.2979,       666,
   68.3181,       600,
   68.3383,       642,
   68.3584,       600,
   68.3786,       624,
   68.3988,       591,
   68.4189,       629,
   68.4391,       611,
   68.4593,       566,
   68.4794,       598,
   68.4996,       570,
   68.5198,       660,
     68.54,       622,
   68.5601,       604,
   68.5803,       635,
   68.6005,       623,
   68.6206,       634,
   68.6408,       626,
    68.661,       623,
   68.6811,       637,
   68.7013,       632,
   68.7215,       614,
   68.7416,       590,
   68.7618,       623,
    68.782,       619,
   68.8021,       570,
   68.8223,       626,
   68.8425,       651,
   68.8626,       602,
   68.8828,       627,
    68.903,       583,
   68.9232,       592,
   68.9433,       601,
   68.9635,       641,
   68.9837,       606,
   69.0038,       646,
    69.024,       597,
   69.0442,       600,
   69.0643,       642,
   69.0845,       598,
   69.1047,       583,
   69.1248,       628,
    69.145,       616,
   69.1652,       617,
   69.1853,       621,
   69.2055,       611,
   69.2257,       572,
   69.2459,       569,
    69.266,       635,
   69.2862,       583,
   69.3064,       613,
   69.3265,       647,
   69.3467,       626,
   69.3669,       587,
    69.387,       589,
   69.4072,       599,
   69.4274,       606,
   69.4475,       629,
   69.4677,       610,
   69.4879,       585,
    69.508,       649,
   69.5282,       608,
   69.5484,       577,
   69.5685,       628,
   69.5887,       641,
   69.6089,       601,
   69.6291,       658,
   69.6492,       622,
   69.6694,       606,
   69.6896,       562,
   69.7097,       620,
   69.7299,       631,
   69.7501,       647,
   69.7702,       669,
   69.7904,       633,
   69.8106,       636,
   69.8307,       608,
   69.8509,       631,
   69.8711,       637,
   69.8912,       583,
   69.9114,       600,
   69.9316,       579,
   69.9517,       600,
   69.9719,       599,
   69.9921,       658,
   70.0123,       572,
   70.0324,       604,
   70.0526,       626,
   70.0728,       628,
   70.0929,       645,
   70.1131,       629,
   70.1333,       591,
   70.1534,       633,
   70.1736,       606,
   70.1938,       618,
   70.2139,       610,
   70.2341,       635,
   70.2543,       651,
   70.2744,       646,
   70.2946,       624,
   70.3148,       593,
    70.335,       595,
   70.3551,       617,
   70.3753,       590,
   70.3955,       621,
   70.4156,       622,
   70.4358,       579,
    70.456,       660,
   70.4761,       644,
   70.4963,       644,
   70.5165,       591,
   70.5366,       625,
   70.5568,       584,
    70.577,       607,
   70.5971,       614,
   70.6173,       582,
   70.6375,       608,
   70.6576,       593,
   70.6778,       593,
    70.698,       604,
   70.7182,       613,
   70.7383,       634,
   70.7585,       582,
   70.7787,       617,
   70.7988,       588,
    70.819,       615,
   70.8392,       656,
   70.8593,       620,
   70.8795,       682,
   70.8997,       630,
   70.9198,       572,
     70.94,       621,
   70.9602,       601,
   70.9803,       640,
   71.0005,       637,
   71.0207,       610,
   71.0409,       624,
    71.061,       595,
   71.0812,       585,
   71.1014,       636,
   71.1215,       605,
   71.1417,       613,
   71.1619,       622,
    71.182,       584,
   71.2022,       620,
   71.2224,       648,
   71.2425,       615,
   71.2627,       606,
   71.2829,       625,
    71.303,       622,
   71.3232,       637,
   71.3434,       586,
   71.3635,       623,
   71.3837,       632,
   71.4039,       645,
   71.4241,       626,
   71.4442,       611,
   71.4644,       634,
   71.4846,       622,
   71.5047,       615,
   71.5249,       624,
   71.5451,       647,
   71.5652,       641,
   71.5854,       631,
   71.6056,       619,
   71.6257,       632,
   71.6459,       641,
   71.6661,       650,
   71.6862,       651,
   71.7064,       599,
   71.7266,       634,
   71.7467,       623,
   71.7669,       686,
   71.7871,       652,
   71.8073,       652,
   71.8274,       624,
   71.8476,       627,
   71.8678,       633,
   71.8879,       635,
   71.9081,       588,
   71.9283,       589,
   71.9484,       597,
   71.9686,       666,
   71.9888,       644,
   72.0089,       626,
   72.0291,       577,
   72.0493,       633,
   72.0694,       599,
   72.0896,       660,
   72.1098,       609,
     72.13,       599,
   72.1501,       664,
   72.1703,       612,
   72.1905,       656,
   72.2106,       638,
   72.2308,       634,
    72.251,       643,
   72.2711,       612,
   72.2913,       656,
   72.3115,       604,
   72.3316,       612,
   72.3518,       606,
    72.372,       610,
   72.3921,       629,
   72.4123,       660,
   72.4325,       616,
   72.4526,       629,
   72.4728,       624,
    72.493,       646,
   72.5132,       621,
   72.5333,       653,
   72.5535,       621,
   72.5737,       626,
   72.5938,       648,
    72.614,       653,
   72.6342,       578,
   72.6543,       663,
   72.6745,       607,
   72.6947,       652,
   72.7148,       648,
    72.735,       651,
   72.7552,       669,
   72.7753,       594,
   72.7955,       596,
   72.8157,       671,
   72.8358,       651,
    72.856,       614,
   72.8762,       619,
   72.8964,       627,
   72.9165,       606,
   72.9367,       628,
   72.9569,       667,
    72.977,       641,
   72.9972,       650,
   73.0174,       616,
   73.0375,       617,
   73.0577,       643,
   73.0779,       644,
    73.098,       640,
   73.1182,       655,
   73.1384,       667,
   73.1585,       652,
   73.1787,       630,
   73.1989,       685,
   73.2191,       657,
   73.2392,       656,
   73.2594,       661,
   73.2796,       660,
   73.2997,       636,
   73.3199,       702,
   73.3401,       715,
   73.3602,       678,
   73.3804,       630,
   73.4006,       660,
   73.4207,       664,
   73.4409,       660,
   73.4611,       677,
   73.4812,       647,
   73.5014,       683,
   73.5216,       659,
   73.5417,       697,
   73.5619,       656,
   73.5821,       693,
   73.6023,       675,
   73.6224,       714,
   73.6426,       694,
   73.6628,       719,
   73.6829,       712,
   73.7031,       721,
   73.7233,       727,
   73.7434,       708,
   73.7636,       790,
   73.7838,       803,
   73.8039,       807,
   73.8241,       883,
   73.8443,       842,
   73.8644,       891,
   73.8846,       914,
   73.9048,       916,
   73.9249,       930,
   73.9451,       883,
   73.9653,       928,
   73.9855,       943,
   74.0056,       964,
   74.0258,      1030,
    74.046,      1058,
   74.0661,      1171,
   74.0863,      1281,
   74.1065,      1393,
   74.1266,      1515,
   74.1468,      1879,
    74.167,      2472,
   74.1871,      3734,
   74.2073,      5838,
   74.2275,      7994,
   74.2476,      8706,
   74.2678,      6787,
    74.288,      4643,
   74.3082,      3115,
   74.3283,      2296,
   74.3485,      2035,
   74.3687,      1976,
   74.3888,      2213,
    74.409,      2855,
   74.4292,      3806,
   74.4493,      4688,
   74.4695,      4657,
   74.4897,      3612,
   74.5098,      2553,
     74.53,      1785,
   74.5502,      1436,
   74.5703,      1226,
   74.5905,      1091,
   74.6107,       959,
   74.6308,      1016,
    74.651,       941,
   74.6712,       883,
   74.6914,       860,
   74.7115,       828,
   74.7317,       857,
   74.7519,       801,
    74.772,       786,
   74.7922,       820,
   74.8124,       787,
   74.8325,       745,
   74.8527,       756,
   74.8729,       757,
    74.893,       728,
   74.9132,       704,
   74.9334,       711,
   74.9535,       713,
   74.9737,       696,
   74.9939,       727,
    75.014,       692,
   75.0342,       671,
   75.0544,       675,
   75.0746,       676,
   75.0947,       710,
   75.1149,       707,
   75.1351,       662,
   75.1552,       666,
   75.1754,       663,
   75.1956,       711,
   75.2157,       700,
   75.2359,       720,
   75.2561,       652,
   75.2762,       666,
   75.2964,       667,
   75.3166,       671,
   75.3367,       614,
   75.3569,       622,
   75.3771,       633,
   75.3973,       617,
   75.4174,       659,
   75.4376,       683,
   75.4578,       660,
   75.4779,       654,
   75.4981,       642,
   75.5183,       614,
   75.5384,       644,
   75.5586,       677,
   75.5788,       639,
   75.5989,       651,
   75.6191,       648,
   75.6393,       630,
   75.6594,       641,
   75.6796,       636,
   75.6998,       658,
   75.7199,       588,
   75.7401,       623,
   75.7603,       601,
   75.7805,       669,
   75.8006,       607,
   75.8208,       615,
    75.841,       626,
   75.8611,       656,
   75.8813,       603,
   75.9015,       643,
   75.9216,       635,
   75.9418,       649,
    75.962,       609,
   75.9821,       623,
   76.0023,       645,
   76.0225,       662,
   76.0426,       608,
   76.0628,       630,
    76.083,       633,
   76.1032,       654,
   76.1233,       641,
   76.1435,       615,
   76.1637,       619,
   76.1838,       649,
    76.204,       649,
   76.2242,       623,
   76.2443,       690,
   76.2645,       611,
   76.2847,       622,
   76.3048,       640,
    76.325,       674,
   76.3452,       600,
   76.3653,       642,
   76.3855,       658,
   76.4057,       604,
   76.4258,       645,
    76.446,       631,
   76.4662,       599,
   76.4864,       594,
   76.5065,       657,
   76.5267,       620,
   76.5469,       623,
    76.567,       620,
   76.5872,       681,
   76.6074,       639,
   76.6275,       613,
   76.6477,       605,
   76.6679,       661,
    76.688,       663,
   76.7082,       637,
   76.7284,       643,
   76.7485,       635,
   76.7687,       592,
   76.7889,       611,
    76.809,       627,
   76.8292,       582,
   76.8494,       628,
   76.8696,       616,
   76.8897,       642,
   76.9099,       614,
   76.9301,       627,
   76.9502,       637,
   76.9704,       596,
   76.9906,       664,
   77.0107,       622,
   77.0309,       593,
   77.0511,       602,
   77.0712,       677,
   77.0914,       616,
   77.1116,       653,
   77.1317,       627,
   77.1519,       593,
   77.1721,       589,
   77.1923,       616,
   77.2124,       590,
   77.2326,       622,
   77.2528,       632,
   77.2729,       629,
   77.2931,       681,
   77.3133,       626,
   77.3334,       644,
   77.3536,       602,
   77.3738,       654,
   77.3939,       594,
   77.4141,       616,
   77.4343,       607,
   77.4544,       647,
   77.4746,       580,
   77.4948,       628,
   77.5149,       623,
   77.5351,       657,
   77.5553,       612,
   77.5755,       641,
   77.5956,       597,
   77.6158,       592,
    77.636,       624,
   77.6561,       630,
   77.6763,       671,
   77.6965,       617,
   77.7166,       653,
   77.7368,       597,
    77.757,       635,
   77.7771,       613,
   77.7973,       597,
   77.8175,       609,
   77.8376,       594,
   77.8578,       603,
    77.878,       613,
   77.8981,       617,
   77.9183,       667,
   77.9385,       584,
   77.9587,       698,
   77.9788,       609,
    77.999,       623,
