;RAW4.00
[RawHeader]
Date=11/25/2025
EstimatedTotalTime=426.6
FurtherDQLReading=0
HardwareIndicator=65519
MeasuredTotalTime=4.29431
MeasurementFlag=1
NumberOfMeasuredRanges=1
NumberOfRanges=1
Time=23:59:42

[VarInfo]
Type=USER
Flags=0
Value=Lab Manager

[VarInfo]
Type=SAMPLEID
Flags=0
Value=Commander Sample ID

[VarInfo]
Type=COMMENT
Flags=0
Value=

[VarInfo]
Type=UTF
Flags=0
Value=

[VarInfo]
Type=CREATOR
Flags=0
Value=V5Converter

[VarInfo]
Type=CREATOR_VERSION
Flags=0
Value=4.4.16.0

[HardwareConfiguration]
AbsorptionFactor=9999
ActivateAbsorber=0
Alpha1=1.5406
Alpha2=1.54439
AlphaAverage=1.54184
AlphaRatio=0.5
Analyzer=0
Anode=Cu
AntiScatteringSlit=9999
BeamOpticsFlags=0
Beta=1.39222
BetaRelativeIntensity=0
DeactivateAbsorber=0
DetectorSlit=9999
DivergenceSlit=9999
GoniometerControl=0
GoniometerDiameter=282
GoniometerModel=256
GoniometerStage=7
Monochromator=0
NearSampleSlit=9999
PrimarySollerSlit=9999
SampleChanger=0
SecondSollerSlit=9999
SynchronousAxis=0
ThinFilmAttachment=9999
WaveUnit=A

[RangeHeader]
ActuallyUsedLambda=1.54184
AdditionalDetectorMask=257
DataRecordLength=4
DelayTime=0
DisplayPlaneNumber=0
EstimatedScanTime=427
ExtraParametersMask=0
GeneratorCurrent=10
GeneratorVoltage=30
Increment=0.0201685
Increment3=0
NumberOfCompletedData=1885
NumberOfCounts=1
NumberOfDetectors=0
NumberOfDrives=3
NumberOfEncoderDrives=0
NumberOfMeasuredData=1885
NumberOfVaryingParameters=0
RangeStartTime=0
RotationSpeed=0
ScanMode=1
ScanType=Locked Coupled
SimulatedMeasConditions=0
SlitChangerIn=0
SmootingWidth=0
Start=40.0015
Steps=1885
SynchronousRotation=0
Time=33

[VarInfo]
Type=PSD_DISCRIM
Flags=0
Value=0.11;0.5

[VarInfo]
Type=OPTICS_V5
Flags=0
Value=H4sIAAAAAAAEAO1d63KjOhJ+Fda/zqmtBIPtXKaITzm2J+OaOHbFTnKmtrZcBORYZzC4AOey//d99hl2X2x1QViIS8C3JBN+TCaodWm6+2vUUkfS/nieW9IjcD3o2GcV5bBakYBtOCa0H84qS396oBxV/mhqF44NnTnwgdt25gvHBrbf0X1dQq1t78uzB88qM99ffJHlp6enw6faoeM+yGq1qsh/9i9HxgzM9QNoe75uG6AStjJfb1WRbqEH7y1wpc/BWWXFR0joAM9w4cInL/Bj4UHLsSW+3oXrLBc9NBZ6t3Pgojcb3P8FDH+o+7OzitwBj9AAMt+CrxUfl1Lblu55QRehTORzoM8XqLDt2L4ObeBy/coBc6yHluEvdYtxoR6o1ePT02O5h8TkLue4tzhrTW2EZGjqqBswQr3oFvyXjl+9OdUtD2hyGln7c259hcAyrwHqHhq4EDFpA/KbJ8lNjfKD1ToCFipvdm00JDA1OUbR6Btwou9Ab2HpL824AjQ5tXK8m+bF4OrHhPzodEft64TGrBVWDOsoPhpP1bBWhrxWvISy1r0hIUP+4r8skMLHrm78xG8sGODQhXPdfSHkZBMMakgD9GxISBvSeHkPOIFIQeOidilHx44baRI9r5mSRmyEDSxUYBJZ3blu/xy4JnCvAfYzAL0wsdX3b8s5NVnMwIfj6+8T9KPV/l7IxHm5Jhp5z0OvBh9BE+kGCS98DAk920dCZMIVSikeHA9SJulgmhwp1bAq2ZMXfZT4B2LSAxc+QFu3ogSlwl6OWi7Ssb/0moPwnSLFGmsYPPedJdIj0qJQrgWE0MJ5JCOdEXICmjFtjmnJUA7J0tRxpRHQLUBtYA3AytxYcejGiMm4JZa46kmmLG0LrhEWBa3xcus++8A2MZDfDYZpCWdMkQKtj5nwHfcltGVFk+OFGseMJxH2qHoYWND7cnJosmJN5ku1uCnh1+H65qyTKx3Y545jAR1NEG5s6BPpdiDSG56bXcI59IlYwiKvWdVk7knrgKm+tPxb3VoCboigVyQ96CPXTshnFewlKri/oQta5l9LD8GnYEuZYx67mbHTJoqe6ZblPK0cjVCOarZnwPgJzFUVVqC1ESPOHKsWvx33pNH5Zl7erhEyxkg2xVq1lr7TdoHug6HrLIDrvzAWEyiR9/eIRfdMhLKr5fweuE21rslCEdaQRS08UPF//xMyUSUc9B0TNG8Quqbos4xMnTwz90Y+PzEHluy7tuWt5HgP/ND5vNXOHBXjLvaN2aNbYuh5A79Evm3IJvErCL6JJ23LP418rD3OPSHRTOHDEjnla/gw85sIdabECnU0BoKwUKWYS+vrz5fAfvBnTbXRwKJhj2nOjrJISkNktZevObqMVm/q5DL4SnFwGS02cm5pFninPwKqkpa1mOmKYIUieVuWOJh2nCVqyWzxf//ehzWm2Nxw9uJBQ7dIeQJnTA/KYaNePXrNFtfo7ca2MPfItOjcf/WMZelYS+paugfVBtErK9H60Ibz5bx5oBwenx4fndaUWv3kSK0pjePu32vVE4S4oAZGIvklvWZQ4W0Rs4b0UpC0Rk/7QJiajTD10yOsXjvdJsRYdyXGNhLfFkDGuto1yh6Bqz+IoV6M/ulxppzUt4kz1l2Js43EtwWcsa52jLNz4OupIMPET46w2qmqqttD2Kq7EmEbiW9jhK262jHCrvGaRirECHVXGHuvCFutth02NsJWrKMSVWsKbh08xTrZCZK+OsbSG7gQ2D5ZHRSgJJK3tspG1g4H057tH9XfH6CibEVXr/OjKbkXhfRCBYDfqOeDOWLs0nmABl3VvJn0rm5bl73OpP2tN9TkFYkJfAye/WbPftQtiMQzg4uVjCJaIvW07+CFjI1lEf6uyTEWsnm67F2lsnIJbSARW0kbWtlk6OEgY+yhA20/e3B1k8GZLoaD0auqCHeKD6S58wgk35HmwJjpNrYKCTmTxd/SeKxl8/ienF2WXefzdFk9bOTm6N5Lz546UqiqhAVciZbr3FOQY3BWIVUkVBrdJr+ZtC6H31rRcrGRhEeyyEjkXXKxo0bYURPZUVPYUbPYUQuzEywL8PxEyoQBQloib5PW7UUWe0HrokySmCrg8D78PeybkkWGzrvjVjIvuH4+FiIbUQEDqBXeyxN46LJSkY3uZbffvRqnSMV2TCAFbaXVSDlkQmfBvNq4EkHsASVZZdetcW+QpTTSOp+8YlOLgL9pYnk4ToQicvl10J4MrpMZJONJkeZyfMe6Ed+xvgA2skTfcYU8TFacvPmcsQFLZ8dr7r82tXQiP3O7dSw/voYXlO4q5vl5u6WEjcypLxqFfRNqVSHyCL4FKaFHctihVBMCjFp1f7FErbF+MBEXRsEvZLo55TW19tJ1sT+LmlpQuitTm7f2YWpolHD6sQ1TaySFsh/E0uKy2LulDZ0nkgHOmxQp25WV3aUEnW+xcHMnRJr5lluqhymm+EkWW+4491hde7Ul3ssWbV9+7YtfJA0UTQyNGXBfyVbbPA8ud74bklUw60j9YgWfilQ/I4dzraYmBmuZ2QhiKJW9qxqLdLI3h6IxR/YytzAXT1vD42MIIXVJnC4nR8cylyaJ7OZRhxZeJcCPHu2eWH2ZQFkmUJYJlGUCZZlA+fE2xcsEyvezJV4mUP6aCCsTKN8TxsoEyl8VZ2UC5XvCWZlA+ashrEygfE8IKxMoywTKMoGyTKAsEyjLBMoygbJMoCwTKMsEyjKBskygLBMoywTKMoGyTKAsEyjLBMoygbJMoHzr+KNMoCwTKD9tAiXLkUS/iumT7KzT+Cmg4tm7GScqd+cL/4UkG4arGcVOT+72h4PRhP4scnoyGTg0xcTzk2U+BzLzcGMl7XBjde+HGw8WbefceR5MR45lATfhiGNKyDjkmKsg/WbotmTQQ8ElNJZEifQE7N/XgX9k+LhXSSBnuYaE6hunwkb7FPSZfOxxRGTIPPKL8PePe2KymphYK0bAR+scevtxXAin6Q2diJrmRGpv50S+wmdgEkNlcw/RmVjQz3IliCz1U2CAaRv4kdXICV5EJGb6ELHy5h6E61FQZYr/YA2o98gntQ/sOmq5XMfxeudlE7OmVzSsTJpYMhZe0hcRy1SR/jGf/zPDjH/DR/7fA2QfErQ9hAVgol98R9I5hWWaMq5mhBds4KeJUp0oaQYcIb5mwIVtN52ZmPP5qH/5US30lx930PRnYm4HLtvZktP8/WxBxzgL44DNsuvjPeVdZqh+7nWGuODWWWeI97KTtI5vABumgB1a+LnBszXslNBZz+i3gpzt3wSirjOzGenzhQXuZgBYY/QC/KUgIkkjH65UJ0ChmfamMj+F+lCxGJtFbxiJ1dIisfpGkRjhMR6HvT9h3thLD5hkeHHgLInKwm1g17oJl16CldWVYB+fXrg3mE494KdZfesZevz3Iay2B1ceYybnbh1ywVU1LSlVPTypn6qNRkNN8LvHjcOTRv24dqQqvK8VhNAM7mETbitc+w7DEUCRgJl9i2FYh7v9roNCXwNnMmzhLkORh4SYKLFGsfsMwz42ifVFRj70nYaF9FrM/4zwzYaj4jcbRuW787sNw+F2cbvhyRss3uHlOks3wMyxzMQtgMsX+xm8pBxzcfnj6s/ujy654bCjSsOZ7olX4OYEsRyOEwezQMpa3mDWKOO8X3k4Wj2jProvYAvX6KYzLmrzl7v28CTPUlxNiU9Yi8wL0ecUu0XdWrmWfniNJk2pxn6HJHazGl4xZ9PpjyfkXwFHw4ba6R6gstmscZebgP09bgIKCIswkLYN2N/zNmAmj6JSs3YC+59rJ1Cp53Ii1c+wFVhGSkUjpbRAqXF4dHrSUJRqPWmBqqEcHldP68dqfQeB0sontAHGieA9hcKI4+SmzLSadMAw70kjnLfkkW8dVkPLMIDnOS4E3hoRE+Mi7j2jlLwRUvyl1/ekrIcPHRqtqcpiLudicNWekB9FHA7lZ+eh0Ri4qHQnkdHp3mdFwxkkShPAfO0EGXBRYgTUqKlErdE1Wb0CGJXZGHSdNqGDKCsJ1TJnP6vqMuJUZpxuDuAUxgVFpsREEgUYMFu+rxszPNBZ5WDPRwluc5pzmitr4SQ+y+l5TBQhKMMCjfMcZLfIWj48ALPjYkzSv8ZE3eHvWs9sIu2S3oNHTCEVRwtgwGnwt6KsUpyC4BLvvcgEK46DYs5u+K03mpAfRZxdFKHbnGBVi0yvQisOP5lEYfRDEPwf22IqXU7pckqXI7qcECvsd+8VLsZPznhGTjB6jZVIzZz8ZA+dc9yig6ZEJvFifFQxXo8YAd9H0PIkfi6GHAXNPKxILbzB7vVR6AbplI5NtLGOuVT/5i2e1Rn4EFu+VFtBkewhB6uqmiyUa3yqI/WAkWUTj/6JxSqYYK6D6Pv/u9RXv2COAAA=

[PSD]
ActualTwoTheta=9999
FirstUsedChannel=0
FixedPSD=0
PSDOpening=4.99171
PSDType=5

[Drive]
DriveFlags=1
DriveName=2Theta
DriveNumber=2
DriveOffset=0
OffsetIndex=0
OscillationAmplitude=0
OscillationSpeed=0
StartPosition=40.0015

[Drive]
DriveFlags=1
DriveName=Theta
DriveNumber=1
DriveOffset=0
OffsetIndex=0
OscillationAmplitude=0
OscillationSpeed=0
StartPosition=20.0007

[Drive]
DriveFlags=1
DriveName=Phi
DriveNumber=3
DriveOffset=0
OffsetIndex=0
OscillationAmplitude=0
OscillationSpeed=0
StartPosition=0

[Data]
     Angle,       PSD,
   40.0015,       585,
   40.0217,       618,
   40.0418,       629,
    40.062,       596,
   40.0822,       648,
   40.1023,       596,
   40.1225,       649,
   40.1427,       617,
   40.1628,       627,
    40.183,       611,
   40.2032,       619,
   40.2233,       596,
   40.2435,       630,
   40.2637,       639,
   40.2838,       604,
    40.304,       650,
   40.3242,       613,
   40.3444,       653,
   40.3645,       607,
   40.3847,       620,
   40.4049,       633,
    40.425,       584,
   40.4452,       642,
   40.4654,       639,
   40.4855,       672,
   40.5057,       644,
   40.5259,       631,
    40.546,       631,
   40.5662,       654,
   40.5864,       644,
   40.6065,       617,
   40.6267,       602,
   40.6469,       606,
   40.6671,       643,
   40.6872,       660,
   40.7074,       580,
   40.7276,       631,
   40.7477,       606,
   40.7679,       614,
   40.7881,       651,
   40.8082,       639,
   40.8284,       623,
   40.8486,       661,
   40.8687,       653,
   40.8889,       652,
   40.9091,       626,
   40.9292,       641,
   40.9494,       622,
   40.9696,       659,
   40.9897,       627,
   41.0099,       653,
   41.0301,       685,
   41.0503,       665,
   41.0704,       659,
   41.0906,       629,
   41.1108,       663,
   41.1309,       667,
   41.1511,       645,
   41.1713,       679,
   41.1914,       648,
   41.2116,       692,
   41.2318,       659,
   41.2519,       651,
   41.2721,       661,
   41.2923,       652,
   41.3124,       660,
   41.3326,       695,
   41.3528,       669,
   41.3729,       698,
   41.3931,       679,
   41.4133,       685,
   41.4335,       621,
   41.4536,       656,
   41.4738,       661,
    41.494,       664,
   41.5141,       693,
   41.5343,       635,
   41.5545,       668,
   41.5746,       656,
   41.5948,       657,
    41.615,       689,
   41.6351,       724,
   41.6553,       653,
   41.6755,       700,
   41.6956,       649,
   41.7158,       699,
    41.736,       710,
   41.7562,       679,
   41.7763,       665,
   41.7965,       729,
   41.8167,       748,
   41.8368,       727,
    41.857,       721,
   41.8772,       711,
   41.8973,       703,
   41.9175,       691,
   41.9377,       779,
   41.9578,       757,
    41.978,       742,
   41.9982,       711,
   42.0183,       765,
   42.0385,       742,
   42.0587,       791,
   42.0788,       733,
    42.099,       784,
   42.1192,       763,
   42.1394,       812,
   42.1595,       806,
   42.1797,       737,
   42.1999,       810,
     42.22,       810,
   42.2402,       830,
   42.2604,       848,
   42.2805,       854,
   42.3007,       793,
   42.3209,       732,
    42.341,       843,
   42.3612,       848,
   42.3814,       811,
   42.4015,       797,
   42.4217,       791,
   42.4419,       821,
    42.462,       863,
   42.4822,       881,
   42.5024,       884,
   42.5226,       864,
   42.5427,       864,
   42.5629,       889,
   42.5831,       899,
   42.6032,       894,
   42.6234,       869,
   42.6436,       924,
   42.6637,       931,
   42.6839,       963,
   42.7041,       934,
   42.7242,      1007,
   42.7444,       971,
   42.7646,       960,
   42.7847,      1031,
   42.8049,      1031,
   42.8251,       989,
   42.8453,      1138,
   42.8654,      1148,
   42.8856,      1124,
   42.9058,      1136,
   42.9259,      1252,
   42.9461,      1249,
   42.9663,      1266,
   42.9864,      1323,
   43.0066,      1414,
   43.0268,      1434,
   43.0469,      1506,
   43.0671,      1582,
   43.0873,      1688,
   43.1074,      1740,
   43.1276,      1926,
   43.1478,      2124,
   43.1679,      2233,
   43.1881,      2307,
   43.2083,      2581,
   43.2285,      2889,
   43.2486,      3146,
   43.2688,      3587,
    43.289,      3938,
   43.3091,      4572,
   43.3293,      5189,
   43.3495,      6096,
   43.3696,      7127,
   43.3898,      8344,
     43.41,      9911,
   43.4301,     11294,
   43.4503,     13116,
   43.4705,     14603,
   43.4906,     15842,
   43.5108,     16146,
    43.531,     15691,
   43.5511,     15175,
   43.5713,     14211,
   43.5915,     13595,
   43.6117,     12955,
   43.6318,     11586,
    43.652,     10026,
   43.6722,      9009,
   43.6923,      7592,
   43.7125,      6667,
   43.7327,      5789,
   43.7528,      5154,
    43.773,      4401,
   43.7932,      3826,
   43.8133,      3478,
   43.8335,      3139,
   43.8537,      2859,
   43.8738,      2635,
    43.894,      2346,
   43.9142,      2197,
   43.9344,      2023,
   43.9545,      1923,
   43.9747,      1826,
   43.9949,      1717,
    44.015,      1613,
   44.0352,      1520,
   44.0554,      1516,
   44.0755,      1398,
   44.0957,      1325,
   44.1159,      1255,
    44.136,      1311,
   44.1562,      1216,
   44.1764,      1192,
   44.1965,      1159,
   44.2167,      1164,
   44.2369,      1131,
    44.257,      1114,
   44.2772,      1051,
   44.2974,      1065,
   44.3176,      1022,
   44.3377,       980,
   44.3579,       988,
   44.3781,      1001,
   44.3982,       944,
   44.4184,       936,
   44.4386,       957,
   44.4587,       918,
   44.4789,       919,
   44.4991,       942,
   44.5192,       910,
   44.5394,       940,
   44.5596,       861,
   44.5797,       892,
   44.5999,       857,
   44.6201,       857,
   44.6402,       863,
   44.6604,       816,
   44.6806,       902,
   44.7008,       854,
   44.7209,       884,
   44.7411,       837,
   44.7613,       870,
   44.7814,       836,
   44.8016,       843,
   44.8218,       813,
   44.8419,       827,
   44.8621,       766,
   44.8823,       771,
   44.9024,       818,
   44.9226,       782,
   44.9428,       771,
   44.9629,       819,
   44.9831,       811,
   45.0033,       775,
   45.0235,       826,
   45.0436,       762,
   45.0638,       803,
    45.084,       765,
   45.1041,       795,
   45.1243,       738,
   45.1445,       744,
   45.1646,       784,
   45.1848,       743,
    45.205,       733,
   45.2251,       795,
   45.2453,       757,
   45.2655,       775,
   45.2856,       777,
   45.3058,       801,
    45.326,       714,
   45.3461,       782,
   45.3663,       809,
   45.3865,       718,
   45.4067,       704,
   45.4268,       770,
    45.447,       767,
   45.4672,       784,
   45.4873,       789,
   45.5075,       769,
   45.5277,       715,
   45.5478,       776,
    45.568,       765,
   45.5882,       771,
   45.6083,       767,
   45.6285,       745,
   45.6487,       761,
   45.6688,       717,
    45.689,       730,
   45.7092,       756,
   45.7294,       728,
   45.7495,       727,
   45.7697,       727,
   45.7899,       780,
     45.81,       719,
   45.8302,       716,
   45.8504,       757,
   45.8705,       721,
   45.8907,       737,
   45.9109,       724,
    45.931,       757,
   45.9512,       738,
   45.9714,       749,
   45.9915,       757,
   46.0117,       714,
   46.0319,       754,
    46.052,       746,
   46.0722,       710,
   46.0924,       703,
   46.1126,       733,
   46.1327,       682,
   46.1529,       699,
   46.1731,       672,
   46.1932,       715,
   46.2134,       709,
   46.2336,       690,
   46.2537,       669,
   46.2739,       743,
   46.2941,       697,
   46.3142,       728,
   46.3344,       661,
   46.3546,       747,
   46.3747,       729,
   46.3949,       673,
   46.4151,       721,
   46.4352,       666,
   46.4554,       683,
   46.4756,       732,
   46.4958,       706,
   46.5159,       709,
   46.5361,       739,
   46.5563,       757,
   46.5764,       677,
   46.5966,       681,
   46.6168,       714,
   46.6369,       730,
   46.6571,       627,
   46.6773,       703,
   46.6974,       729,
   46.7176,       711,
   46.7378,       686,
   46.7579,       701,
   46.7781,       716,
   46.7983,       701,
   46.8185,       797,
   46.8386,       725,
   46.8588,       687,
    46.879,       703,
   46.8991,       701,
   46.9193,       695,
   46.9395,       692,
   46.9596,       745,
   46.9798,       705,
        47,       715,
   47.0201,       735,
   47.0403,       668,
   47.0605,       710,
   47.0806,       729,
   47.1008,       693,
    47.121,       701,
   47.1411,       698,
   47.1613,       717,
   47.1815,       735,
   47.2017,       675,
   47.2218,       761,
    47.242,       698,
   47.2622,       649,
   47.2823,       657,
   47.3025,       728,
   47.3227,       692,
   47.3428,       663,
    47.363,       667,
   47.3832,       715,
   47.4033,       711,
   47.4235,       750,
   47.4437,       684,
   47.4638,       686,
    47.484,       712,
   47.5042,       730,
   47.5243,       685,
   47.5445,       723,
   47.5647,       701,
   47.5849,       739,
    47.605,       727,
   47.6252,       699,
   47.6454,       710,
   47.6655,       689,
   47.6857,       703,
   47.7059,       713,
    47.726,       714,
   47.7462,       725,
   47.7664,       703,
   47.7865,       694,
   47.8067,       693,
   47.8269,       699,
    47.847,       721,
   47.8672,       741,
   47.8874,       721,
   47.9076,       713,
   47.9277,       670,
   47.9479,       717,
   47.9681,       718,
   47.9882,       699,
   48.0084,       696,
   48.0286,       701,
   48.0487,       730,
   48.0689,       670,
   48.0891,       659,
   48.1092,       654,
   48.1294,       720,
   48.1496,       711,
   48.1697,       707,
   48.1899,       710,
   48.2101,       709,
   48.2302,       672,
   48.2504,       701,
   48.2706,       691,
   48.2908,       722,
   48.3109,       689,
   48.3311,       689,
   48.3513,       760,
   48.3714,       684,
   48.3916,       724,
   48.4118,       712,
   48.4319,       710,
   48.4521,       745,
   48.4723,       740,
   48.4924,       671,
   48.5126,       681,
   48.5328,       726,
   48.5529,       761,
   48.5731,       684,
   48.5933,       694,
   48.6134,       712,
   48.6336,       749,
   48.6538,       729,
    48.674,       754,
   48.6941,       698,
   48.7143,       690,
   48.7345,       746,
   48.7546,       637,
   48.7748,       706,
    48.795,       708,
   48.8151,       719,
   48.8353,       812,
   48.8555,       767,
   48.8756,       700,
   48.8958,       694,
    48.916,       728,
   48.9361,       707,
   48.9563,       698,
   48.9765,       756,
   48.9967,       732,
   49.0168,       710,
    49.037,       769,
   49.0572,       775,
   49.0773,       749,
   49.0975,       724,
   49.1177,       730,
   49.1378,       751,
    49.158,       758,
   49.1782,       785,
   49.1983,       725,
   49.2185,       744,
   49.2387,       746,
   49.2588,       758,
    49.279,       788,
   49.2992,       785,
   49.3193,       812,
   49.3395,       728,
   49.3597,       797,
   49.3799,       740,
      49.4,       804,
   49.4202,       769,
   49.4404,       833,
   49.4605,       842,
   49.4807,       841,
   49.5009,       774,
    49.521,       843,
   49.5412,       762,
   49.5614,       798,
   49.5815,       766,
   49.6017,       864,
   49.6219,       847,
    49.642,       902,
   49.6622,       887,
   49.6824,       861,
   49.7025,       853,
   49.7227,       905,
   49.7429,       922,
   49.7631,       964,
   49.7832,       864,
   49.8034,       893,
   49.8236,       949,
   49.8437,       938,
   49.8639,       965,
   49.8841,      1021,
   49.9042,       989,
   49.9244,       984,
   49.9446,      1006,
   49.9647,      1093,
   49.9849,      1081,
   50.0051,      1123,
   50.0252,      1124,
   50.0454,      1174,
   50.0656,      1239,
   50.0858,      1169,
   50.1059,      1309,
   50.1261,      1384,
   50.1463,      1406,
   50.1664,      1465,
   50.1866,      1486,
   50.2068,      1531,
   50.2269,      1576,
   50.2471,      1647,
   50.2673,      1757,
   50.2874,      1970,
   50.3076,      2010,
   50.3278,      2039,
   50.3479,      2211,
   50.3681,      2431,
   50.3883,      2441,
   50.4084,      2529,
   50.4286,      2775,
   50.4488,      3071,
    50.469,      3085,
   50.4891,      3140,
   50.5093,      3362,
   50.5295,      3570,
   50.5496,      3742,
   50.5698,      3844,
     50.59,      4134,
   50.6101,      4117,
   50.6303,      4280,
   50.6505,      4182,
   50.6706,      4083,
   50.6908,      3914,
    50.711,      3757,
   50.7311,      3761,
   50.7513,      3718,
   50.7715,      3533,
   50.7917,      3347,
   50.8118,      3080,
    50.832,      2875,
   50.8522,      2748,
   50.8723,      2660,
   50.8925,      2489,
   50.9127,      2337,
   50.9328,      2165,
    50.953,      2051,
   50.9732,      1968,
   50.9933,      1833,
   51.0135,      1737,
   51.0337,      1740,
   51.0538,      1587,
    51.074,      1573,
   51.0942,      1488,
   51.1143,      1418,
   51.1345,      1312,
   51.1547,      1266,
   51.1749,      1312,
    51.195,      1145,
   51.2152,      1049,
   51.2354,      1157,
   51.2555,      1112,
   51.2757,      1079,
   51.2959,      1012,
    51.316,       955,
   51.3362,       948,
   51.3564,       962,
   51.3765,       914,
   51.3967,       959,
   51.4169,       841,
    51.437,       851,
   51.4572,       800,
   51.4774,       819,
   51.4975,       910,
   51.5177,       867,
   51.5379,       869,
   51.5581,       856,
   51.5782,       803,
   51.5984,       817,
   51.6186,       835,
   51.6387,       773,
   51.6589,       800,
   51.6791,       768,
   51.6992,       795,
   51.7194,       808,
   51.7396,       746,
   51.7597,       734,
   51.7799,       700,
   51.8001,       753,
   51.8202,       768,
   51.8404,       737,
   51.8606,       726,
   51.8808,       754,
   51.9009,       740,
   51.9211,       701,
   51.9413,       709,
   51.9614,       695,
   51.9816,       712,
   52.0018,       706,
   52.0219,       763,
   52.0421,       750,
   52.0623,       703,
   52.0824,       725,
   52.1026,       712,
   52.1228,       717,
   52.1429,       725,
   52.1631,       717,
   52.1833,       676,
   52.2034,       695,
   52.2236,       683,
   52.2438,       717,
    52.264,       689,
   52.2841,       678,
   52.3043,       739,
   52.3245,       737,
   52.3446,       656,
   52.3648,       672,
    52.385,       636,
   52.4051,       685,
   52.4253,       753,
   52.4455,       620,
   52.4656,       652,
   52.4858,       655,
    52.506,       646,
   52.5261,       637,
   52.5463,       669,
   52.5665,       687,
   52.5866,       637,
   52.6068,       674,
    52.627,       708,
   52.6472,       680,
   52.6673,       648,
   52.6875,       672,
   52.7077,       671,
   52.7278,       633,
    52.748,       636,
   52.7682,       655,
   52.7883,       683,
   52.8085,       658,
   52.8287,       644,
   52.8488,       644,
    52.869,       664,
   52.8892,       653,
   52.9093,       648,
   52.9295,       658,
   52.9497,       658,
   52.9699,       628,
     52.99,       685,
   53.0102,       660,
   53.0304,       603,
   53.0505,       646,
   53.0707,       638,
   53.0909,       633,
    53.111,       646,
   53.1312,       628,
   53.1514,       648,
   53.1715,       649,
   53.1917,       660,
   53.2119,       645,
    53.232,       622,
   53.2522,       645,
   53.2724,       683,
   53.2925,       649,
   53.3127,       660,
   53.3329,       659,
   53.3531,       653,
   53.3732,       585,
   53.3934,       638,
   53.4136,       644,
   53.4337,       707,
   53.4539,       617,
   53.4741,       654,
   53.4942,       665,
   53.5144,       600,
   53.5346,       626,
   53.5547,       650,
   53.5749,       662,
   53.5951,       669,
   53.6152,       628,
   53.6354,       633,
   53.6556,       637,
   53.6757,       653,
   53.6959,       686,
   53.7161,       670,
   53.7363,       605,
   53.7564,       681,
   53.7766,       651,
   53.7968,       604,
   53.8169,       623,
   53.8371,       643,
   53.8573,       640,
   53.8774,       618,
   53.8976,       636,
   53.9178,       662,
   53.9379,       615,
   53.9581,       643,
   53.9783,       611,
   53.9984,       625,
   54.0186,       670,
   54.0388,       612,
    54.059,       633,
   54.0791,       609,
   54.0993,       655,
   54.1195,       635,
   54.1396,       647,
   54.1598,       625,
     54.18,       636,
   54.2001,       651,
   54.2203,       655,
   54.2405,       579,
   54.2606,       600,
   54.2808,       592,
    54.301,       615,
   54.3211,       648,
   54.3413,       672,
   54.3615,       628,
   54.3816,       624,
   54.4018,       662,
    54.422,       587,
   54.4422,       609,
   54.4623,       585,
   54.4825,       611,
   54.5027,       653,
   54.5228,       592,
    54.543,       644,
   54.5632,       603,
   54.5833,       619,
   54.6035,       640,
   54.6237,       584,
   54.6438,       596,
    54.664,       640,
   54.6842,       638,
   54.7043,       651,
   54.7245,       646,
   54.7447,       597,
   54.7648,       633,
    54.785,       657,
   54.8052,       614,
   54.8254,       642,
   54.8455,       623,
   54.8657,       628,
   54.8859,       608,
    54.906,       634,
   54.9262,       597,
   54.9464,       631,
   54.9665,       657,
   54.9867,       636,
   55.0069,       602,
    55.027,       628,
   55.0472,       650,
   55.0674,       626,
   55.0875,       594,
   55.1077,       638,
   55.1279,       623,
   55.1481,       657,
   55.1682,       607,
   55.1884,       573,
   55.2086,       614,
   55.2287,       651,
   55.2489,       637,
   55.2691,       645,
   55.2892,       595,
   55.3094,       587,
   55.3296,       603,
   55.3497,       654,
   55.3699,       652,
   55.3901,       600,
   55.4102,       653,
   55.4304,       608,
   55.4506,       606,
   55.4707,       605,
   55.4909,       621,
   55.5111,       598,
   55.5313,       628,
   55.5514,       657,
   55.5716,       597,
   55.5918,       624,
   55.6119,       643,
   55.6321,       623,
   55.6523,       639,
   55.6724,       581,
   55.6926,       653,
   55.7128,       662,
   55.7329,       632,
   55.7531,       583,
   55.7733,       641,
   55.7934,       607,
   55.8136,       642,
   55.8338,       605,
    55.854,       604,
   55.8741,       647,
   55.8943,       560,
   55.9145,       611,
   55.9346,       595,
   55.9548,       619,
    55.975,       631,
   55.9951,       605,
   56.0153,       654,
   56.0355,       652,
   56.0556,       649,
   56.0758,       618,
    56.096,       614,
   56.1161,       608,
   56.1363,       569,
   56.1565,       653,
   56.1766,       633,
   56.1968,       658,
    56.217,       607,
   56.2372,       596,
   56.2573,       611,
   56.2775,       649,
   56.2977,       623,
   56.3178,       656,
    56.338,       651,
   56.3582,       624,
   56.3783,       581,
   56.3985,       602,
   56.4187,       640,
   56.4388,       603,
    56.459,       627,
   56.4792,       592,
   56.4993,       594,
   56.5195,       579,
   56.5397,       616,
   56.5598,       602,
     56.58,       613,
   56.6002,       622,
   56.6204,       634,
   56.6405,       605,
   56.6607,       655,
   56.6809,       584,
    56.701,       608,
   56.7212,       601,
   56.7414,       594,
   56.7615,       641,
   56.7817,       631,
   56.8019,       587,
    56.822,       584,
   56.8422,       597,
   56.8624,       617,
   56.8825,       589,
   56.9027,       637,
   56.9229,       611,
   56.9431,       621,
   56.9632,       580,
   56.9834,       625,
   57.0036,       561,
   57.0237,       621,
   57.0439,       606,
   57.0641,       646,
   57.0842,       607,
   57.1044,       636,
   57.1246,       588,
   57.1447,       577,
   57.1649,       631,
   57.1851,       613,
   57.2052,       618,
   57.2254,       584,
   57.2456,       610,
   57.2657,       610,
   57.2859,       601,
   57.3061,       576,
   57.3263,       594,
   57.3464,       653,
   57.3666,       608,
   57.3868,       620,
   57.4069,       611,
   57.4271,       605,
   57.4473,       585,
   57.4674,       570,
   57.4876,       618,
   57.5078,       607,
   57.5279,       619,
   57.5481,       589,
   57.5683,       618,
   57.5884,       653,
   57.6086,       623,
   57.6288,       614,
   57.6489,       613,
   57.6691,       638,
   57.6893,       616,
   57.7095,       582,
   57.7296,       610,
   57.7498,       623,
     57.77,       625,
   57.7901,       601,
   57.8103,       644,
   57.8305,       610,
   57.8506,       608,
   57.8708,       633,
    57.891,       600,
   57.9111,       592,
   57.9313,       641,
   57.9515,       635,
   57.9716,       587,
   57.9918,       608,
    58.012,       582,
   58.0322,       567,
   58.0523,       548,
   58.0725,       577,
   58.0927,       622,
   58.1128,       580,
    58.133,       596,
   58.1532,       621,
   58.1733,       620,
   58.1935,       591,
   58.2137,       597,
   58.2338,       664,
    58.254,       619,
   58.2742,       596,
   58.2943,       600,
   58.3145,       621,
   58.3347,       626,
   58.3548,       614,
    58.375,       595,
   58.3952,       617,
   58.4154,       635,
   58.4355,       576,
   58.4557,       586,
   58.4759,       582,
    58.496,       606,
   58.5162,       585,
   58.5364,       574,
   58.5565,       567,
   58.5767,       626,
   58.5969,       641,
    58.617,       602,
   58.6372,       582,
   58.6574,       611,
   58.6775,       637,
   58.6977,       598,
   58.7179,       594,
    58.738,       637,
   58.7582,       635,
   58.7784,       615,
   58.7986,       631,
   58.8187,       608,
   58.8389,       635,
   58.8591,       595,
   58.8792,       635,
   58.8994,       629,
   58.9196,       625,
   58.9397,       622,
   58.9599,       591,
   58.9801,       604,
   59.0002,       586,
   59.0204,       620,
   59.0406,       624,
   59.0607,       574,
   59.0809,       623,
   59.1011,       632,
   59.1213,       614,
   59.1414,       618,
   59.1616,       624,
   59.1818,       588,
   59.2019,       582,
   59.2221,       620,
   59.2423,       617,
   59.2624,       540,
   59.2826,       573,
   59.3028,       585,
   59.3229,       617,
   59.3431,       598,
   59.3633,       581,
   59.3834,       583,
   59.4036,       577,
   59.4238,       609,
   59.4439,       587,
   59.4641,       609,
   59.4843,       608,
   59.5045,       599,
   59.5246,       595,
   59.5448,       621,
    59.565,       567,
   59.5851,       601,
   59.6053,       605,
   59.6255,       612,
   59.6456,       585,
   59.6658,       617,
    59.686,       614,
   59.7061,       598,
   59.7263,       591,
   59.7465,       579,
   59.7666,       589,
   59.7868,       613,
    59.807,       609,
   59.8271,       598,
   59.8473,       603,
   59.8675,       572,
   59.8877,       580,
   59.9078,       659,
    59.928,       573,
   59.9482,       634,
   59.9683,       602,
   59.9885,       616,
   60.0087,       609,
   60.0288,       618,
    60.049,       593,
   60.0692,       594,
   60.0893,       606,
   60.1095,       584,
   60.1297,       610,
   60.1498,       592,
     60.17,       588,
   60.1902,       611,
   60.2104,       605,
   60.2305,       591,
   60.2507,       620,
   60.2709,       585,
    60.291,       621,
   60.3112,       578,
   60.3314,       614,
   60.3515,       605,
   60.3717,       586,
   60.3919,       621,
    60.412,       574,
   60.4322,       610,
   60.4524,       605,
   60.4725,       598,
   60.4927,       594,
   60.5129,       601,
    60.533,       591,
   60.5532,       614,
   60.5734,       542,
   60.5936,       591,
   60.6137,       605,
   60.6339,       582,
   60.6541,       579,
   60.6742,       590,
   60.6944,       593,
   60.7146,       603,
   60.7347,       614,
   60.7549,       631,
   60.7751,       560,
   60.7952,       588,
   60.8154,       558,
   60.8356,       595,
   60.8557,       582,
   60.8759,       614,
   60.8961,       620,
   60.9163,       610,
   60.9364,       575,
   60.9566,       605,
   60.9768,       588,
   60.9969,       644,
   61.0171,       602,
   61.0373,       612,
   61.0574,       608,
   61.0776,       608,
   61.0978,       588,
   61.1179,       567,
   61.1381,       559,
   61.1583,       574,
   61.1784,       612,
   61.1986,       610,
   61.2188,       606,
   61.2389,       595,
   61.2591,       565,
   61.2793,       611,
   61.2995,       605,
   61.3196,       598,
   61.3398,       563,
     61.36,       617,
   61.3801,       588,
   61.4003,       590,
   61.4205,       598,
   61.4406,       586,
   61.4608,       596,
    61.481,       562,
   61.5011,       618,
   61.5213,       604,
   61.5415,       614,
   61.5616,       599,
   61.5818,       578,
    61.602,       590,
   61.6221,       613,
   61.6423,       600,
   61.6625,       602,
   61.6827,       607,
   61.7028,       535,
    61.723,       566,
   61.7432,       610,
   61.7633,       598,
   61.7835,       583,
   61.8037,       581,
   61.8238,       574,
    61.844,       610,
   61.8642,       622,
   61.8843,       581,
   61.9045,       594,
   61.9247,       570,
   61.9448,       535,
    61.965,       608,
   61.9852,       600,
   62.0054,       580,
   62.0255,       610,
   62.0457,       619,
   62.0659,       569,
    62.086,       628,
   62.1062,       589,
   62.1264,       608,
   62.1465,       586,
   62.1667,       601,
   62.1869,       577,
    62.207,       547,
   62.2272,       569,
   62.2474,       592,
   62.2675,       593,
   62.2877,       614,
   62.3079,       583,
    62.328,       572,
   62.3482,       564,
   62.3684,       573,
   62.3886,       592,
   62.4087,       604,
   62.4289,       623,
   62.4491,       593,
   62.4692,       583,
   62.4894,       570,
   62.5096,       584,
   62.5297,       590,
   62.5499,       593,
   62.5701,       630,
   62.5902,       630,
   62.6104,       626,
   62.6306,       625,
   62.6507,       605,
   62.6709,       573,
   62.6911,       565,
   62.7112,       578,
   62.7314,       601,
   62.7516,       582,
   62.7718,       561,
   62.7919,       613,
   62.8121,       560,
   62.8323,       584,
   62.8524,       623,
   62.8726,       604,
   62.8928,       609,
   62.9129,       598,
   62.9331,       607,
   62.9533,       552,
   62.9734,       604,
   62.9936,       593,
   63.0138,       614,
   63.0339,       584,
   63.0541,       587,
   63.0743,       599,
   63.0945,       585,
   63.1146,       611,
   63.1348,       622,
    63.155,       608,
   63.1751,       613,
   63.1953,       605,
   63.2155,       575,
   63.2356,       602,
   63.2558,       588,
    63.276,       546,
   63.2961,       595,
   63.3163,       607,
   63.3365,       588,
   63.3566,       604,
   63.3768,       596,
    63.397,       586,
   63.4171,       576,
   63.4373,       609,
   63.4575,       591,
   63.4777,       593,
   63.4978,       574,
    63.518,       603,
   63.5382,       593,
   63.5583,       601,
   63.5785,       605,
   63.5987,       584,
   63.6188,       612,
    63.639,       585,
   63.6592,       605,
   63.6793,       565,
   63.6995,       621,
   63.7197,       574,
   63.7398,       586,
     63.76,       604,
   63.7802,       638,
   63.8003,       587,
   63.8205,       574,
   63.8407,       597,
   63.8609,       590,
    63.881,       573,
   63.9012,       621,
   63.9214,       583,
   63.9415,       585,
   63.9617,       579,
   63.9819,       594,
    64.002,       588,
   64.0222,       617,
   64.0424,       587,
   64.0625,       622,
   64.0827,       582,
   64.1029,       585,
    64.123,       615,
   64.1432,       606,
   64.1634,       615,
   64.1836,       611,
   64.2037,       595,
   64.2239,       587,
   64.2441,       576,
   64.2642,       607,
   64.2844,       589,
   64.3046,       573,
   64.3247,       542,
   64.3449,       577,
   64.3651,       580,
   64.3852,       632,
   64.4054,       559,
   64.4256,       567,
   64.4457,       550,
   64.4659,       562,
   64.4861,       612,
   64.5062,       597,
   64.5264,       574,
   64.5466,       550,
   64.5668,       597,
   64.5869,       600,
   64.6071,       598,
   64.6273,       595,
   64.6474,       565,
   64.6676,       614,
   64.6878,       576,
   64.7079,       588,
   64.7281,       579,
   64.7483,       585,
   64.7684,       641,
   64.7886,       568,
   64.8088,       627,
   64.8289,       579,
   64.8491,       584,
   64.8693,       562,
   64.8894,       589,
   64.9096,       576,
   64.9298,       597,
     64.95,       567,
   64.9701,       600,
   64.9903,       598,
   65.0105,       580,
   65.0306,       584,
   65.0508,       608,
    65.071,       635,
   65.0911,       578,
   65.1113,       560,
   65.1315,       599,
   65.1516,       638,
   65.1718,       642,
    65.192,       569,
   65.2121,       572,
   65.2323,       568,
   65.2525,       600,
   65.2727,       604,
   65.2928,       597,
    65.313,       613,
   65.3332,       605,
   65.3533,       547,
   65.3735,       622,
   65.3937,       601,
   65.4138,       597,
    65.434,       635,
   65.4542,       584,
   65.4743,       604,
   65.4945,       578,
   65.5147,       608,
   65.5348,       625,
    65.555,       596,
   65.5752,       603,
   65.5953,       577,
   65.6155,       574,
   65.6357,       592,
   65.6559,       598,
    65.676,       570,
   65.6962,       599,
   65.7164,       629,
   65.7365,       597,
   65.7567,       577,
   65.7769,       558,
    65.797,       603,
   65.8172,       611,
   65.8374,       565,
   65.8575,       625,
   65.8777,       557,
   65.8979,       599,
    65.918,       593,
   65.9382,       589,
   65.9584,       580,
   65.9786,       591,
   65.9987,       633,
   66.0189,       614,
   66.0391,       594,
   66.0592,       582,
   66.0794,       576,
   66.0996,       638,
   66.1197,       565,
   66.1399,       561,
   66.1601,       594,
   66.1802,       653,
   66.2004,       608,
   66.2206,       550,
   66.2407,       587,
   66.2609,       589,
   66.2811,       555,
   66.3012,       639,
   66.3214,       599,
   66.3416,       608,
   66.3618,       603,
   66.3819,       597,
   66.4021,       544,
   66.4223,       610,
   66.4424,       589,
   66.4626,       623,
   66.4828,       568,
   66.5029,       587,
   66.5231,       580,
   66.5433,       606,
   66.5634,       609,
   66.5836,       619,
   66.6038,       627,
   66.6239,       611,
   66.6441,       609,
   66.6643,       584,
   66.6844,       615,
   66.7046,       571,
   66.7248,       560,
    66.745,       576,
   66.7651,       649,
   66.7853,       593,
   66.8055,       582,
   66.8256,       579,
   66.8458,       574,
    66.866,       566,
   66.8861,       583,
   66.9063,       610,
   66.9265,       605,
   66.9466,       596,
   66.9668,       605,
    66.987,       557,
   67.0071,       592,
   67.0273,       583,
   67.0475,       556,
   67.0677,       620,
   67.0878,       607,
    67.108,       591,
   67.1282,       557,
   67.1483,       597,
   67.1685,       619,
   67.1887,       596,
   67.2088,       554,
    67.229,       608,
   67.2492,       566,
   67.2693,       571,
   67.2895,       594,
   67.3097,       580,
   67.3298,       572,
     67.35,       571,
   67.3702,       652,
   67.3903,       588,
   67.4105,       567,
   67.4307,       593,
   67.4509,       591,
    67.471,       604,
   67.4912,       592,
   67.5114,       583,
   67.5315,       588,
   67.5517,       585,
   67.5719,       593,
    67.592,       584,
   67.6122,       612,
   67.6324,       583,
   67.6525,       590,
   67.6727,       612,
   67.6929,       588,
    67.713,       608,
   67.7332,       577,
   67.7534,       592,
   67.7735,       637,
   67.7937,       582,
   67.8139,       559,
   67.8341,       583,
   67.8542,       588,
   67.8744,       589,
   67.8946,       571,
   67.9147,       566,
   67.9349,       558,
   67.9551,       597,
   67.9752,       593,
   67.9954,       600,
   68.0156,       616,
   68.0357,       607,
   68.0559,       560,
   68.0761,       585,
   68.0962,       589,
   68.1164,       554,
   68.1366,       612,
   68.1568,       632,
   68.1769,       618,
   68.1971,       610,
   68.2173,       584,
   68.2374,       610,
   68.2576,       612,
   68.2778,       582,
   68.2979,       570,
   68.3181,       605,
   68.3383,       629,
   68.3584,       599,
   68.3786,       621,
   68.3988,       556,
   68.4189,       577,
   68.4391,       593,
   68.4593,       598,
   68.4794,       602,
   68.4996,       591,
   68.5198,       563,
     68.54,       623,
   68.5601,       599,
   68.5803,       540,
   68.6005,       568,
   68.6206,       593,
   68.6408,       557,
    68.661,       555,
   68.6811,       588,
   68.7013,       630,
   68.7215,       602,
   68.7416,       583,
   68.7618,       586,
    68.782,       598,
   68.8021,       585,
   68.8223,       587,
   68.8425,       578,
   68.8626,       579,
   68.8828,       547,
    68.903,       624,
   68.9232,       608,
   68.9433,       545,
   68.9635,       558,
   68.9837,       560,
   69.0038,       601,
    69.024,       608,
   69.0442,       589,
   69.0643,       542,
   69.0845,       569,
   69.1047,       570,
   69.1248,       611,
    69.145,       560,
   69.1652,       636,
   69.1853,       603,
   69.2055,       556,
   69.2257,       618,
   69.2459,       575,
    69.266,       570,
   69.2862,       584,
   69.3064,       589,
   69.3265,       559,
   69.3467,       574,
   69.3669,       594,
    69.387,       637,
   69.4072,       606,
   69.4274,       587,
   69.4475,       569,
   69.4677,       597,
   69.4879,       588,
    69.508,       579,
   69.5282,       615,
   69.5484,       579,
   69.5685,       579,
   69.5887,       587,
   69.6089,       562,
   69.6291,       569,
   69.6492,       598,
   69.6694,       588,
   69.6896,       557,
   69.7097,       635,
   69.7299,       568,
   69.7501,       622,
   69.7702,       571,
   69.7904,       599,
   69.8106,       595,
   69.8307,       548,
   69.8509,       580,
   69.8711,       642,
   69.8912,       587,
   69.9114,       604,
   69.9316,       563,
   69.9517,       582,
   69.9719,       573,
   69.9921,       589,
   70.0123,       578,
   70.0324,       590,
   70.0526,       595,
   70.0728,       603,
   70.0929,       598,
   70.1131,       550,
   70.1333,       588,
   70.1534,       557,
   70.1736,       551,
   70.1938,       560,
   70.2139,       605,
   70.2341,       579,
   70.2543,       589,
   70.2744,       586,
   70.2946,       565,
   70.3148,       579,
    70.335,       585,
   70.3551,       543,
   70.3753,       588,
   70.3955,       576,
   70.4156,       577,
   70.4358,       601,
    70.456,       594,
   70.4761,       600,
   70.4963,       583,
   70.5165,       598,
   70.5366,       588,
   70.5568,       579,
    70.577,       576,
   70.5971,       572,
   70.6173,       566,
   70.6375,       584,
   70.6576,       578,
   70.6778,       566,
    70.698,       572,
   70.7182,       616,
   70.7383,       599,
   70.7585,       595,
   70.7787,       633,
   70.7988,       564,
    70.819,       589,
   70.8392,       580,
   70.8593,       608,
   70.8795,       530,
   70.8997,       592,
   70.9198,       618,
     70.94,       567,
   70.9602,       582,
   70.9803,       602,
   71.0005,       608,
   71.0207,       596,
   71.0409,       611,
    71.061,       607,
   71.0812,       607,
   71.1014,       620,
   71.1215,       595,
   71.1417,       574,
   71.1619,       592,
    71.182,       608,
   71.2022,       586,
   71.2224,       574,
   71.2425,       617,
   71.2627,       652,
   71.2829,       564,
    71.303,       601,
   71.3232,       614,
   71.3434,       598,
   71.3635,       598,
   71.3837,       601,
   71.4039,       604,
   71.4241,       591,
   71.4442,       588,
   71.4644,       582,
   71.4846,       597,
   71.5047,       605,
   71.5249,       566,
   71.5451,       594,
   71.5652,       562,
   71.5854,       552,
   71.6056,       598,
   71.6257,       611,
   71.6459,       643,
   71.6661,       617,
   71.6862,       634,
   71.7064,       583,
   71.7266,       595,
   71.7467,       639,
   71.7669,       578,
   71.7871,       613,
   71.8073,       578,
   71.8274,       570,
   71.8476,       558,
   71.8678,       623,
   71.8879,       596,
   71.9081,       592,
   71.9283,       611,
   71.9484,       571,
   71.9686,       595,
   71.9888,       598,
   72.0089,       585,
   72.0291,       629,
   72.0493,       598,
   72.0694,       591,
   72.0896,       625,
   72.1098,       595,
     72.13,       619,
   72.1501,       581,
   72.1703,       628,
   72.1905,       618,
   72.2106,       610,
   72.2308,       619,
    72.251,       570,
   72.2711,       659,
   72.2913,       630,
   72.3115,       589,
   72.3316,       581,
   72.3518,       637,
    72.372,       572,
   72.3921,       629,
   72.4123,       622,
   72.4325,       603,
   72.4526,       572,
   72.4728,       582,
    72.493,       582,
   72.5132,       603,
   72.5333,       625,
   72.5535,       556,
   72.5737,       625,
   72.5938,       590,
    72.614,       631,
   72.6342,       602,
   72.6543,       602,
   72.6745,       605,
   72.6947,       592,
   72.7148,       596,
    72.735,       586,
   72.7552,       638,
   72.7753,       623,
   72.7955,       590,
   72.8157,       593,
   72.8358,       618,
    72.856,       644,
   72.8762,       624,
   72.8964,       619,
   72.9165,       577,
   72.9367,       612,
   72.9569,       613,
    72.977,       632,
   72.9972,       626,
   73.0174,       637,
   73.0375,       602,
   73.0577,       619,
   73.0779,       605,
    73.098,       646,
   73.1182,       627,
   73.1384,       601,
   73.1585,       633,
   73.1787,       648,
   73.1989,       615,
   73.2191,       617,
   73.2392,       613,
   73.2594,       625,
   73.2796,       633,
   73.2997,       591,
   73.3199,       632,
   73.3401,       645,
   73.3602,       665,
   73.3804,       597,
   73.4006,       657,
   73.4207,       646,
   73.4409,       623,
   73.4611,       651,
   73.4812,       664,
   73.5014,       701,
   73.5216,       667,
   73.5417,       657,
   73.5619,       646,
   73.5821,       689,
   73.6023,       717,
   73.6224,       692,
   73.6426,       729,
   73.6628,       674,
   73.6829,       753,
   73.7031,       696,
   73.7233,       702,
   73.7434,       709,
   73.7636,       764,
   73.7838,       798,
   73.8039,       749,
   73.8241,       829,
   73.8443,       784,
   73.8644,       878,
   73.8846,       864,
   73.9048,       861,
   73.9249,       846,
   73.9451,       926,
   73.9653,       928,
   73.9855,       971,
   74.0056,       974,
   74.0258,       957,
    74.046,      1065,
   74.0661,      1127,
   74.0863,      1133,
   74.1065,      1171,
   74.1266,      1218,
   74.1468,      1226,
    74.167,      1330,
   74.1871,      1410,
   74.2073,      1465,
   74.2275,      1469,
   74.2476,      1618,
   74.2678,      1602,
    74.288,      1727,
   74.3082,      1619,
   74.3283,      1493,
   74.3485,      1518,
   74.3687,      1461,
   74.3888,      1452,
    74.409,      1432,
   74.4292,      1373,
   74.4493,      1369,
   74.4695,      1395,
   74.4897,      1346,
   74.5098,      1334,
     74.53,      1306,
   74.5502,      1222,
   74.5703,      1159,
   74.5905,      1120,
   74.6107,      1071,
   74.6308,      1040,
    74.651,       995,
   74.6712,       947,
   74.6914,       933,
   74.7115,       893,
   74.7317,       912,
   74.7519,       919,
    74.772,       801,
   74.7922,       859,
   74.8124,       807,
   74.8325,       861,
   74.8527,       796,
   74.8729,       797,
    74.893,       751,
   74.9132,       750,
   74.9334,       727,
   74.9535,       734,
   74.9737,       692,
   74.9939,       750,
    75.014,       696,
   75.0342,       700,
   75.0544,       630,
   75.0746,       671,
   75.0947,       650,
   75.1149,       667,
   75.1351,       649,
   75.1552,       663,
   75.1754,       713,
   75.1956,       651,
   75.2157,       643,
   75.2359,       630,
   75.2561,       594,
   75.2762,       667,
   75.2964,       604,
   75.3166,       647,
   75.3367,       621,
   75.3569,       618,
   75.3771,       686,
   75.3973,       627,
   75.4174,       597,
   75.4376,       624,
   75.4578,       613,
   75.4779,       646,
   75.4981,       616,
   75.5183,       640,
   75.5384,       606,
   75.5586,       608,
   75.5788,       589,
   75.5989,       637,
   75.6191,       636,
   75.6393,       618,
   75.6594,       636,
   75.6796,       572,
   75.6998,       573,
   75.7199,       604,
   75.7401,       633,
   75.7603,       626,
   75.7805,       627,
   75.8006,       619,
   75.8208,       601,
    75.841,       624,
   75.8611,       616,
   75.8813,       630,
   75.9015,       580,
   75.9216,       636,
   75.9418,       631,
    75.962,       598,
   75.9821,       626,
   76.0023,       587,
   76.0225,       573,
   76.0426,       647,
   76.0628,       604,
    76.083,       606,
   76.1032,       620,
   76.1233,       580,
   76.1435,       599,
   76.1637,       590,
   76.1838,       678,
    76.204,       575,
   76.2242,       603,
   76.2443,       588,
   76.2645,       592,
   76.2847,       590,
   76.3048,       576,
    76.325,       607,
   76.3452,       624,
   76.3653,       550,
   76.3855,       584,
   76.4057,       591,
   76.4258,       592,
    76.446,       591,
   76.4662,       613,
   76.4864,       596,
   76.5065,       552,
   76.5267,       627,
   76.5469,       624,
    76.567,       600,
   76.5872,       548,
   76.6074,       609,
   76.6275,       600,
   76.6477,       597,
   76.6679,       541,
    76.688,       585,
   76.7082,       633,
   76.7284,       573,
   76.7485,       588,
   76.7687,       612,
   76.7889,       558,
    76.809,       583,
   76.8292,       601,
   76.8494,       557,
   76.8696,       592,
   76.8897,       541,
   76.9099,       579,
   76.9301,       582,
   76.9502,       561,
   76.9704,       569,
   76.9906,       555,
   77.0107,       576,
   77.0309,       604,
   77.0511,       602,
   77.0712,       603,
   77.0914,       570,
   77.1116,       615,
   77.1317,       602,
   77.1519,       613,
   77.1721,       561,
   77.1923,       581,
   77.2124,       586,
   77.2326,       588,
   77.2528,       609,
   77.2729,       603,
   77.2931,       632,
   77.3133,       602,
   77.3334,       598,
   77.3536,       593,
   77.3738,       631,
   77.3939,       584,
   77.4141,       598,
   77.4343,       583,
   77.4544,       579,
   77.4746,       611,
   77.4948,       629,
   77.5149,       639,
   77.5351,       588,
   77.5553,       614,
   77.5755,       626,
   77.5956,       594,
   77.6158,       548,
    77.636,       626,
   77.6561,       575,
   77.6763,       584,
   77.6965,       559,
   77.7166,       601,
   77.7368,       602,
    77.757,       582,
   77.7771,       572,
   77.7973,       570,
   77.8175,       589,
   77.8376,       600,
   77.8578,       593,
    77.878,       593,
   77.8981,       588,
   77.9183,       578,
   77.9385,       526,
   77.9587,       612,
   77.9788,       576,
    77.999,       619,
