;RAW4.00
[RawHeader]
Date=11/26/2025
EstimatedTotalTime=426.6
FurtherDQLReading=0
HardwareIndicator=65519
MeasuredTotalTime=4.29438
MeasurementFlag=1
NumberOfMeasuredRanges=1
NumberOfRanges=1
Time=18:31:17

[VarInfo]
Type=USER
Flags=0
Value=Lab Manager

[VarInfo]
Type=SAMPLEID
Flags=0
Value=Commander Sample ID

[VarInfo]
Type=COMMENT
Flags=0
Value=

[VarInfo]
Type=UTF
Flags=0
Value=

[VarInfo]
Type=CREATOR
Flags=0
Value=V5Converter

[VarInfo]
Type=CREATOR_VERSION
Flags=0
Value=4.4.16.0

[HardwareConfiguration]
AbsorptionFactor=9999
ActivateAbsorber=0
Alpha1=1.5406
Alpha2=1.54439
AlphaAverage=1.54184
AlphaRatio=0.5
Analyzer=0
Anode=Cu
AntiScatteringSlit=9999
BeamOpticsFlags=0
Beta=1.39222
BetaRelativeIntensity=0
DeactivateAbsorber=0
DetectorSlit=9999
DivergenceSlit=9999
GoniometerControl=0
GoniometerDiameter=282
GoniometerModel=256
GoniometerStage=7
Monochromator=0
NearSampleSlit=9999
PrimarySollerSlit=9999
SampleChanger=0
SecondSollerSlit=9999
SynchronousAxis=0
ThinFilmAttachment=9999
WaveUnit=A

[RangeHeader]
ActuallyUsedLambda=1.54184
AdditionalDetectorMask=257
DataRecordLength=4
DelayTime=0
DisplayPlaneNumber=0
EstimatedScanTime=427
ExtraParametersMask=0
GeneratorCurrent=10
GeneratorVoltage=30
Increment=0.0201685
Increment3=0
NumberOfCompletedData=1885
NumberOfCounts=1
NumberOfDetectors=0
NumberOfDrives=3
NumberOfEncoderDrives=0
NumberOfMeasuredData=1885
NumberOfVaryingParameters=0
RangeStartTime=0
RotationSpeed=0
ScanMode=1
ScanType=Locked Coupled
SimulatedMeasConditions=0
SlitChangerIn=0
SmootingWidth=0
Start=40.0015
Steps=1885
SynchronousRotation=0
Time=33

[VarInfo]
Type=PSD_DISCRIM
Flags=0
Value=0.11;0.5

[VarInfo]
Type=OPTICS_V5
Flags=0
Value=H4sIAAAAAAAEAO1d63KjOhJ+Fda/zqmtBIPtXKaITzm2J+OaOHbFTnKmtrZcBORYZzC4AOey//d99hl2X2x1QViIS8C3JBN+TCaodWm6+2vUUkfS/nieW9IjcD3o2GcV5bBakYBtOCa0H84qS396oBxV/mhqF44NnTnwgdt25gvHBrbf0X1dQq1t78uzB88qM99ffJHlp6enw6faoeM+yGq1qsh/9i9HxgzM9QNoe75uG6AStjJfb1WRbqEH7y1wpc/BWWXFR0joAM9w4cInL/Bj4UHLsSW+3oXrLBc9NBZ6t3Pgojcb3P8FDH+o+7OzitwBj9AAMt+CrxUfl1Lblu55QRehTORzoM8XqLDt2L4ObeBy/coBc6yHluEvdYtxoR6o1ePT02O5h8TkLue4tzhrTW2EZGjqqBswQr3oFvyXjl+9OdUtD2hyGln7c259hcAyrwHqHhq4EDFpA/KbJ8lNjfKD1ToCFipvdm00JDA1OUbR6Btwou9Ab2HpL824AjQ5tXK8m+bF4OrHhPzodEft64TGrBVWDOsoPhpP1bBWhrxWvISy1r0hIUP+4r8skMLHrm78xG8sGODQhXPdfSHkZBMMakgD9GxISBvSeHkPOIFIQeOidilHx44baRI9r5mSRmyEDSxUYBJZ3blu/xy4JnCvAfYzAL0wsdX3b8s5NVnMwIfj6+8T9KPV/l7IxHm5Jhp5z0OvBh9BE+kGCS98DAk920dCZMIVSikeHA9SJulgmhwp1bAq2ZMXfZT4B2LSAxc+QFu3ogSlwl6OWi7Ssb/0moPwnSLFGmsYPPedJdIj0qJQrgWE0MJ5JCOdEXICmjFtjmnJUA7J0tRxpRHQLUBtYA3AytxYcejGiMm4JZa46kmmLG0LrhEWBa3xcus++8A2MZDfDYZpCWdMkQKtj5nwHfcltGVFk+OFGseMJxH2qHoYWND7cnJosmJN5ku1uCnh1+H65qyTKx3Y545jAR1NEG5s6BPpdiDSG56bXcI59IlYwiKvWdVk7knrgKm+tPxb3VoCboigVyQ96CPXTshnFewlKri/oQta5l9LD8GnYEuZYx67mbHTJoqe6ZblPK0cjVCOarZnwPgJzFUVVqC1ESPOHKsWvx33pNH5Zl7erhEyxkg2xVq1lr7TdoHug6HrLIDrvzAWEyiR9/eIRfdMhLKr5fweuE21rslCEdaQRS08UPF//xMyUSUc9B0TNG8Quqbos4xMnTwz90Y+PzEHluy7tuWt5HgP/ND5vNXOHBXjLvaN2aNbYuh5A79Evm3IJvErCL6JJ23LP418rD3OPSHRTOHDEjnla/gw85sIdabECnU0BoKwUKWYS+vrz5fAfvBnTbXRwKJhj2nOjrJISkNktZevObqMVm/q5DL4SnFwGS02cm5pFninPwKqkpa1mOmKYIUieVuWOJh2nCVqyWzxf//ehzWm2Nxw9uJBQ7dIeQJnTA/KYaNePXrNFtfo7ca2MPfItOjcf/WMZelYS+paugfVBtErK9H60Ibz5bx5oBwenx4fndaUWv3kSK0pjePu32vVE4S4oAZGIvklvWZQ4W0Rs4b0UpC0Rk/7QJiajTD10yOsXjvdJsRYdyXGNhLfFkDGuto1yh6Bqz+IoV6M/ulxppzUt4kz1l2Js43EtwWcsa52jLNz4OupIMPET46w2qmqqttD2Kq7EmEbiW9jhK262jHCrvGaRirECHVXGHuvCFutth02NsJWrKMSVWsKbh08xTrZCZK+OsbSG7gQ2D5ZHRSgJJK3tspG1g4H057tH9XfH6CibEVXr/OjKbkXhfRCBYDfqOeDOWLs0nmABl3VvJn0rm5bl73OpP2tN9TkFYkJfAye/WbPftQtiMQzg4uVjCJaIvW07+CFjI1lEf6uyTEWsnm67F2lsnIJbSARW0kbWtlk6OEgY+yhA20/e3B1k8GZLoaD0auqCHeKD6S58wgk35HmwJjpNrYKCTmTxd/SeKxl8/ienF2WXefzdFk9bOTm6N5Lz546UqiqhAVciZbr3FOQY3BWIVUkVBrdJr+ZtC6H31rRcrGRhEeyyEjkXXKxo0bYURPZUVPYUbPYUQuzEywL8PxEyoQBQloib5PW7UUWe0HrokySmCrg8D78PeybkkWGzrvjVjIvuH4+FiIbUQEDqBXeyxN46LJSkY3uZbffvRqnSMV2TCAFbaXVSDlkQmfBvNq4EkHsASVZZdetcW+QpTTSOp+8YlOLgL9pYnk4ToQicvl10J4MrpMZJONJkeZyfMe6Ed+xvgA2skTfcYU8TFacvPmcsQFLZ8dr7r82tXQiP3O7dSw/voYXlO4q5vl5u6WEjcypLxqFfRNqVSHyCL4FKaFHctihVBMCjFp1f7FErbF+MBEXRsEvZLo55TW19tJ1sT+LmlpQuitTm7f2YWpolHD6sQ1TaySFsh/E0uKy2LulDZ0nkgHOmxQp25WV3aUEnW+xcHMnRJr5lluqhymm+EkWW+4491hde7Ul3ssWbV9+7YtfJA0UTQyNGXBfyVbbPA8ud74bklUw60j9YgWfilQ/I4dzraYmBmuZ2QhiKJW9qxqLdLI3h6IxR/YytzAXT1vD42MIIXVJnC4nR8cylyaJ7OZRhxZeJcCPHu2eWH2ZQFkmUJYJlGUCZZlA+fE2xcsEyvezJV4mUP6aCCsTKN8TxsoEyl8VZ2UC5XvCWZlA+ashrEygfE8IKxMoywTKMoGyTKAsEyjLBMoygbJMoCwTKMsEyjKBskygLBMoywTKMoGyTKAsEyjLBMoygbJMoHzr+KNMoCwTKD9tAiXLkUS/iumT7KzT+Cmg4tm7GScqd+cL/4UkG4arGcVOT+72h4PRhP4scnoyGTg0xcTzk2U+BzLzcGMl7XBjde+HGw8WbefceR5MR45lATfhiGNKyDjkmKsg/WbotmTQQ8ElNJZEifQE7N/XgX9k+LhXSSBnuYaE6hunwkb7FPSZfOxxRGTIPPKL8PePe2KymphYK0bAR+scevtxXAin6Q2diJrmRGpv50S+wmdgEkNlcw/RmVjQz3IliCz1U2CAaRv4kdXICV5EJGb6ELHy5h6E61FQZYr/YA2o98gntQ/sOmq5XMfxeudlE7OmVzSsTJpYMhZe0hcRy1SR/jGf/zPDjH/DR/7fA2QfErQ9hAVgol98R9I5hWWaMq5mhBds4KeJUp0oaQYcIb5mwIVtN52ZmPP5qH/5US30lx930PRnYm4HLtvZktP8/WxBxzgL44DNsuvjPeVdZqh+7nWGuODWWWeI97KTtI5vABumgB1a+LnBszXslNBZz+i3gpzt3wSirjOzGenzhQXuZgBYY/QC/KUgIkkjH65UJ0ChmfamMj+F+lCxGJtFbxiJ1dIisfpGkRjhMR6HvT9h3thLD5hkeHHgLInKwm1g17oJl16CldWVYB+fXrg3mE494KdZfesZevz3Iay2B1ceYybnbh1ywVU1LSlVPTypn6qNRkNN8LvHjcOTRv24dqQqvK8VhNAM7mETbitc+w7DEUCRgJl9i2FYh7v9roNCXwNnMmzhLkORh4SYKLFGsfsMwz42ifVFRj70nYaF9FrM/4zwzYaj4jcbRuW787sNw+F2cbvhyRss3uHlOks3wMyxzMQtgMsX+xm8pBxzcfnj6s/ujy654bCjSsOZ7olX4OYEsRyOEwezQMpa3mDWKOO8X3k4Wj2jProvYAvX6KYzLmrzl7v28CTPUlxNiU9Yi8wL0ecUu0XdWrmWfniNJk2pxn6HJHazGl4xZ9PpjyfkXwFHw4ba6R6gstmscZebgP09bgIKCIswkLYN2N/zNmAmj6JSs3YC+59rJ1Cp53Ii1c+wFVhGSkUjpbRAqXF4dHrSUJRqPWmBqqEcHldP68dqfQeB0sontAHGieA9hcKI4+SmzLSadMAw70kjnLfkkW8dVkPLMIDnOS4E3hoRE+Mi7j2jlLwRUvyl1/ekrIcPHRqtqcpiLudicNWekB9FHA7lZ+eh0Ri4qHQnkdHp3mdFwxkkShPAfO0EGXBRYgTUqKlErdE1Wb0CGJXZGHSdNqGDKCsJ1TJnP6vqMuJUZpxuDuAUxgVFpsREEgUYMFu+rxszPNBZ5WDPRwluc5pzmitr4SQ+y+l5TBQhKMMCjfMcZLfIWj48ALPjYkzSv8ZE3eHvWs9sIu2S3oNHTCEVRwtgwGnwt6KsUpyC4BLvvcgEK46DYs5u+K03mpAfRZxdFKHbnGBVi0yvQisOP5lEYfRDEPwf22IqXU7pckqXI7qcECvsd+8VLsZPznhGTjB6jZVIzZz8ZA+dc9yig6ZEJvFifFQxXo8YAd9H0PIkfi6GHAXNPKxILbzB7vVR6AbplI5NtLGOuVT/5i2e1Rn4EFu+VFtBkewhB6uqmiyUa3yqI/WAkWUTj/6JxSqYYK6D6Pv/u9RXv2COAAA=

[PSD]
ActualTwoTheta=9999
FirstUsedChannel=0
FixedPSD=0
PSDOpening=4.99171
PSDType=5

[Drive]
DriveFlags=1
DriveName=2Theta
DriveNumber=2
DriveOffset=0
OffsetIndex=0
OscillationAmplitude=0
OscillationSpeed=0
StartPosition=40.0015

[Drive]
DriveFlags=1
DriveName=Theta
DriveNumber=1
DriveOffset=0
OffsetIndex=0
OscillationAmplitude=0
OscillationSpeed=0
StartPosition=20.0007

[Drive]
DriveFlags=1
DriveName=Phi
DriveNumber=3
DriveOffset=0
OffsetIndex=0
OscillationAmplitude=0
OscillationSpeed=0
StartPosition=0

[Data]
     Angle,       PSD,
   40.0015,       644,
   40.0217,       634,
   40.0418,       639,
    40.062,       625,
   40.0822,       678,
   40.1023,       654,
   40.1225,       621,
   40.1427,       657,
   40.1628,       613,
    40.183,       629,
   40.2032,       670,
   40.2233,       656,
   40.2435,       656,
   40.2637,       628,
   40.2838,       671,
    40.304,       637,
   40.3242,       635,
   40.3444,       652,
   40.3645,       627,
   40.3847,       665,
   40.4049,       669,
    40.425,       616,
   40.4452,       650,
   40.4654,       617,
   40.4855,       628,
   40.5057,       608,
   40.5259,       626,
    40.546,       673,
   40.5662,       625,
   40.5864,       665,
   40.6065,       662,
   40.6267,       666,
   40.6469,       656,
   40.6671,       613,
   40.6872,       659,
   40.7074,       595,
   40.7276,       679,
   40.7477,       653,
   40.7679,       643,
   40.7881,       646,
   40.8082,       620,
   40.8284,       664,
   40.8486,       690,
   40.8687,       639,
   40.8889,       620,
   40.9091,       673,
   40.9292,       644,
   40.9494,       684,
   40.9696,       633,
   40.9897,       604,
   41.0099,       648,
   41.0301,       649,
   41.0503,       630,
   41.0704,       598,
   41.0906,       597,
   41.1108,       659,
   41.1309,       620,
   41.1511,       692,
   41.1713,       668,
   41.1914,       672,
   41.2116,       649,
   41.2318,       652,
   41.2519,       603,
   41.2721,       621,
   41.2923,       615,
   41.3124,       677,
   41.3326,       672,
   41.3528,       699,
   41.3729,       711,
   41.3931,       656,
   41.4133,       592,
   41.4335,       683,
   41.4536,       635,
   41.4738,       653,
    41.494,       641,
   41.5141,       688,
   41.5343,       679,
   41.5545,       679,
   41.5746,       655,
   41.5948,       678,
    41.615,       632,
   41.6351,       649,
   41.6553,       630,
   41.6755,       626,
   41.6956,       650,
   41.7158,       621,
    41.736,       680,
   41.7562,       608,
   41.7763,       617,
   41.7965,       700,
   41.8167,       656,
   41.8368,       671,
    41.857,       695,
   41.8772,       655,
   41.8973,       648,
   41.9175,       719,
   41.9377,       752,
   41.9578,       780,
    41.978,       756,
   41.9982,       775,
   42.0183,       750,
   42.0385,       787,
   42.0587,       762,
   42.0788,       808,
    42.099,       731,
   42.1192,       799,
   42.1394,       789,
   42.1595,       768,
   42.1797,       739,
   42.1999,       735,
     42.22,       752,
   42.2402,       790,
   42.2604,       763,
   42.2805,       733,
   42.3007,       796,
   42.3209,       767,
    42.341,       775,
   42.3612,       737,
   42.3814,       773,
   42.4015,       760,
   42.4217,       807,
   42.4419,       762,
    42.462,       773,
   42.4822,       816,
   42.5024,       826,
   42.5226,       781,
   42.5427,       817,
   42.5629,       779,
   42.5831,       778,
   42.6032,       727,
   42.6234,       785,
   42.6436,       772,
   42.6637,       781,
   42.6839,       813,
   42.7041,       793,
   42.7242,       805,
   42.7444,       760,
   42.7646,       785,
   42.7847,       846,
   42.8049,       821,
   42.8251,       819,
   42.8453,       823,
   42.8654,       872,
   42.8856,       807,
   42.9058,       865,
   42.9259,       926,
   42.9461,       909,
   42.9663,       928,
   42.9864,       959,
   43.0066,      1035,
   43.0268,      1090,
   43.0469,      1104,
   43.0671,      1183,
   43.0873,      1172,
   43.1074,      1188,
   43.1276,      1248,
   43.1478,      1370,
   43.1679,      1463,
   43.1881,      1533,
   43.2083,      1577,
   43.2285,      1833,
   43.2486,      1981,
   43.2688,      2185,
    43.289,      2312,
   43.3091,      2368,
   43.3293,      2734,
   43.3495,      3408,
   43.3696,      4517,
   43.3898,      7780,
     43.41,     16448,
   43.4301,     36724,
   43.4503,     58069,
   43.4705,     54759,
   43.4906,     31808,
   43.5108,     16482,
    43.531,     16579,
   43.5511,     25667,
   43.5713,     31687,
   43.5915,     24060,
   43.6117,     12278,
   43.6318,      6006,
    43.652,      3654,
   43.6722,      2857,
   43.6923,      2183,
   43.7125,      2052,
   43.7327,      1868,
   43.7528,      1779,
    43.773,      1614,
   43.7932,      1516,
   43.8133,      1334,
   43.8335,      1284,
   43.8537,      1206,
   43.8738,      1170,
    43.894,      1116,
   43.9142,      1016,
   43.9344,       963,
   43.9545,       936,
   43.9747,       973,
   43.9949,       894,
    44.015,       907,
   44.0352,       963,
   44.0554,       898,
   44.0755,       859,
   44.0957,       849,
   44.1159,       862,
    44.136,       823,
   44.1562,       874,
   44.1764,       783,
   44.1965,       800,
   44.2167,       733,
   44.2369,       782,
    44.257,       798,
   44.2772,       825,
   44.2974,       787,
   44.3176,       805,
   44.3377,       824,
   44.3579,       774,
   44.3781,       809,
   44.3982,       755,
   44.4184,       762,
   44.4386,       756,
   44.4587,       811,
   44.4789,       701,
   44.4991,       748,
   44.5192,       709,
   44.5394,       791,
   44.5596,       776,
   44.5797,       767,
   44.5999,       710,
   44.6201,       780,
   44.6402,       776,
   44.6604,       753,
   44.6806,       729,
   44.7008,       741,
   44.7209,       729,
   44.7411,       759,
   44.7613,       724,
   44.7814,       787,
   44.8016,       748,
   44.8218,       742,
   44.8419,       743,
   44.8621,       730,
   44.8823,       718,
   44.9024,       702,
   44.9226,       720,
   44.9428,       737,
   44.9629,       706,
   44.9831,       735,
   45.0033,       719,
   45.0235,       732,
   45.0436,       712,
   45.0638,       690,
    45.084,       696,
   45.1041,       774,
   45.1243,       743,
   45.1445,       726,
   45.1646,       739,
   45.1848,       747,
    45.205,       747,
   45.2251,       750,
   45.2453,       730,
   45.2655,       710,
   45.2856,       690,
   45.3058,       706,
    45.326,       720,
   45.3461,       756,
   45.3663,       708,
   45.3865,       737,
   45.4067,       711,
   45.4268,       770,
    45.447,       744,
   45.4672,       719,
   45.4873,       685,
   45.5075,       714,
   45.5277,       674,
   45.5478,       734,
    45.568,       759,
   45.5882,       736,
   45.6083,       721,
   45.6285,       704,
   45.6487,       674,
   45.6688,       712,
    45.689,       736,
   45.7092,       738,
   45.7294,       694,
   45.7495,       747,
   45.7697,       713,
   45.7899,       684,
     45.81,       680,
   45.8302,       673,
   45.8504,       710,
   45.8705,       708,
   45.8907,       726,
   45.9109,       721,
    45.931,       692,
   45.9512,       767,
   45.9714,       755,
   45.9915,       673,
   46.0117,       724,
   46.0319,       727,
    46.052,       720,
   46.0722,       666,
   46.0924,       676,
   46.1126,       706,
   46.1327,       720,
   46.1529,       688,
   46.1731,       632,
   46.1932,       693,
   46.2134,       695,
   46.2336,       733,
   46.2537,       685,
   46.2739,       705,
   46.2941,       677,
   46.3142,       748,
   46.3344,       723,
   46.3546,       657,
   46.3747,       660,
   46.3949,       717,
   46.4151,       769,
   46.4352,       708,
   46.4554,       709,
   46.4756,       696,
   46.4958,       703,
   46.5159,       670,
   46.5361,       711,
   46.5563,       748,
   46.5764,       683,
   46.5966,       703,
   46.6168,       656,
   46.6369,       685,
   46.6571,       682,
   46.6773,       698,
   46.6974,       671,
   46.7176,       689,
   46.7378,       690,
   46.7579,       703,
   46.7781,       712,
   46.7983,       687,
   46.8185,       734,
   46.8386,       686,
   46.8588,       711,
    46.879,       678,
   46.8991,       671,
   46.9193,       705,
   46.9395,       713,
   46.9596,       690,
   46.9798,       669,
        47,       684,
   47.0201,       712,
   47.0403,       683,
   47.0605,       716,
   47.0806,       692,
   47.1008,       717,
    47.121,       660,
   47.1411,       723,
   47.1613,       667,
   47.1815,       690,
   47.2017,       673,
   47.2218,       678,
    47.242,       704,
   47.2622,       710,
   47.2823,       712,
   47.3025,       692,
   47.3227,       661,
   47.3428,       652,
    47.363,       738,
   47.3832,       687,
   47.4033,       696,
   47.4235,       732,
   47.4437,       672,
   47.4638,       648,
    47.484,       659,
   47.5042,       659,
   47.5243,       684,
   47.5445,       687,
   47.5647,       663,
   47.5849,       669,
    47.605,       725,
   47.6252,       697,
   47.6454,       697,
   47.6655,       716,
   47.6857,       648,
   47.7059,       696,
    47.726,       673,
   47.7462,       732,
   47.7664,       689,
   47.7865,       707,
   47.8067,       633,
   47.8269,       677,
    47.847,       679,
   47.8672,       666,
   47.8874,       695,
   47.9076,       699,
   47.9277,       668,
   47.9479,       660,
   47.9681,       713,
   47.9882,       689,
   48.0084,       663,
   48.0286,       679,
   48.0487,       705,
   48.0689,       694,
   48.0891,       655,
   48.1092,       673,
   48.1294,       678,
   48.1496,       639,
   48.1697,       663,
   48.1899,       680,
   48.2101,       647,
   48.2302,       642,
   48.2504,       681,
   48.2706,       688,
   48.2908,       666,
   48.3109,       678,
   48.3311,       642,
   48.3513,       689,
   48.3714,       652,
   48.3916,       637,
   48.4118,       684,
   48.4319,       654,
   48.4521,       647,
   48.4723,       642,
   48.4924,       676,
   48.5126,       663,
   48.5328,       671,
   48.5529,       667,
   48.5731,       691,
   48.5933,       671,
   48.6134,       617,
   48.6336,       663,
   48.6538,       650,
    48.674,       653,
   48.6941,       681,
   48.7143,       666,
   48.7345,       676,
   48.7546,       657,
   48.7748,       661,
    48.795,       648,
   48.8151,       653,
   48.8353,       722,
   48.8555,       671,
   48.8756,       689,
   48.8958,       680,
    48.916,       725,
   48.9361,       645,
   48.9563,       714,
   48.9765,       731,
   48.9967,       715,
   49.0168,       671,
    49.037,       711,
   49.0572,       701,
   49.0773,       705,
   49.0975,       696,
   49.1177,       754,
   49.1378,       682,
    49.158,       647,
   49.1782,       745,
   49.1983,       702,
   49.2185,       678,
   49.2387,       679,
   49.2588,       715,
    49.279,       737,
   49.2992,       676,
   49.3193,       739,
   49.3395,       655,
   49.3597,       711,
   49.3799,       677,
      49.4,       703,
   49.4202,       693,
   49.4404,       701,
   49.4605,       704,
   49.4807,       643,
   49.5009,       717,
    49.521,       702,
   49.5412,       722,
   49.5614,       681,
   49.5815,       692,
   49.6017,       710,
   49.6219,       707,
    49.642,       755,
   49.6622,       756,
   49.6824,       707,
   49.7025,       658,
   49.7227,       720,
   49.7429,       711,
   49.7631,       698,
   49.7832,       735,
   49.8034,       730,
   49.8236,       712,
   49.8437,       696,
   49.8639,       738,
   49.8841,       783,
   49.9042,       713,
   49.9244,       731,
   49.9446,       717,
   49.9647,       668,
   49.9849,       688,
   50.0051,       679,
   50.0252,       772,
   50.0454,       742,
   50.0656,       735,
   50.0858,       707,
   50.1059,       760,
   50.1261,       789,
   50.1463,       762,
   50.1664,       820,
   50.1866,       802,
   50.2068,       831,
   50.2269,       877,
   50.2471,       910,
   50.2673,       970,
   50.2874,       855,
   50.3076,       993,
   50.3278,      1035,
   50.3479,      1029,
   50.3681,      1155,
   50.3883,      1123,
   50.4084,      1211,
   50.4286,      1316,
   50.4488,      1418,
    50.469,      1692,
   50.4891,      2035,
   50.5093,      2979,
   50.5295,      4543,
   50.5496,      7402,
   50.5698,     10723,
     50.59,     11717,
   50.6101,      9683,
   50.6303,      6711,
   50.6505,      4903,
   50.6706,      4764,
   50.6908,      5562,
    50.711,      6600,
   50.7311,      6413,
   50.7513,      4871,
   50.7715,      3143,
   50.7917,      2205,
   50.8118,      1703,
    50.832,      1343,
   50.8522,      1175,
   50.8723,      1101,
   50.8925,      1058,
   50.9127,      1002,
   50.9328,       909,
    50.953,       926,
   50.9732,       898,
   50.9933,       883,
   51.0135,       806,
   51.0337,       852,
   51.0538,       800,
    51.074,       774,
   51.0942,       722,
   51.1143,       727,
   51.1345,       721,
   51.1547,       763,
   51.1749,       737,
    51.195,       703,
   51.2152,       768,
   51.2354,       733,
   51.2555,       653,
   51.2757,       701,
   51.2959,       681,
    51.316,       699,
   51.3362,       662,
   51.3564,       689,
   51.3765,       713,
   51.3967,       693,
   51.4169,       699,
    51.437,       692,
   51.4572,       670,
   51.4774,       709,
   51.4975,       692,
   51.5177,       696,
   51.5379,       679,
   51.5581,       696,
   51.5782,       687,
   51.5984,       706,
   51.6186,       677,
   51.6387,       643,
   51.6589,       707,
   51.6791,       669,
   51.6992,       616,
   51.7194,       683,
   51.7396,       628,
   51.7597,       684,
   51.7799,       631,
   51.8001,       673,
   51.8202,       633,
   51.8404,       660,
   51.8606,       621,
   51.8808,       649,
   51.9009,       680,
   51.9211,       675,
   51.9413,       722,
   51.9614,       685,
   51.9816,       678,
   52.0018,       664,
   52.0219,       718,
   52.0421,       640,
   52.0623,       686,
   52.0824,       678,
   52.1026,       669,
   52.1228,       700,
   52.1429,       654,
   52.1631,       644,
   52.1833,       691,
   52.2034,       689,
   52.2236,       655,
   52.2438,       624,
    52.264,       639,
   52.2841,       699,
   52.3043,       648,
   52.3245,       643,
   52.3446,       664,
   52.3648,       672,
    52.385,       660,
   52.4051,       671,
   52.4253,       651,
   52.4455,       675,
   52.4656,       626,
   52.4858,       674,
    52.506,       654,
   52.5261,       663,
   52.5463,       680,
   52.5665,       638,
   52.5866,       635,
   52.6068,       694,
    52.627,       642,
   52.6472,       658,
   52.6673,       623,
   52.6875,       658,
   52.7077,       645,
   52.7278,       627,
    52.748,       642,
   52.7682,       687,
   52.7883,       646,
   52.8085,       631,
   52.8287,       605,
   52.8488,       656,
    52.869,       649,
   52.8892,       652,
   52.9093,       685,
   52.9295,       672,
   52.9497,       658,
   52.9699,       649,
     52.99,       680,
   53.0102,       651,
   53.0304,       706,
   53.0505,       639,
   53.0707,       616,
   53.0909,       661,
    53.111,       636,
   53.1312,       672,
   53.1514,       648,
   53.1715,       631,
   53.1917,       644,
   53.2119,       644,
    53.232,       643,
   53.2522,       636,
   53.2724,       631,
   53.2925,       687,
   53.3127,       621,
   53.3329,       683,
   53.3531,       674,
   53.3732,       615,
   53.3934,       622,
   53.4136,       611,
   53.4337,       669,
   53.4539,       667,
   53.4741,       668,
   53.4942,       620,
   53.5144,       643,
   53.5346,       658,
   53.5547,       620,
   53.5749,       686,
   53.5951,       632,
   53.6152,       661,
   53.6354,       641,
   53.6556,       647,
   53.6757,       661,
   53.6959,       651,
   53.7161,       625,
   53.7363,       659,
   53.7564,       644,
   53.7766,       645,
   53.7968,       621,
   53.8169,       636,
   53.8371,       682,
   53.8573,       638,
   53.8774,       681,
   53.8976,       640,
   53.9178,       625,
   53.9379,       667,
   53.9581,       623,
   53.9783,       656,
   53.9984,       637,
   54.0186,       609,
   54.0388,       630,
    54.059,       685,
   54.0791,       623,
   54.0993,       620,
   54.1195,       617,
   54.1396,       662,
   54.1598,       669,
     54.18,       637,
   54.2001,       645,
   54.2203,       643,
   54.2405,       641,
   54.2606,       600,
   54.2808,       619,
    54.301,       639,
   54.3211,       640,
   54.3413,       622,
   54.3615,       647,
   54.3816,       619,
   54.4018,       611,
    54.422,       651,
   54.4422,       601,
   54.4623,       642,
   54.4825,       634,
   54.5027,       615,
   54.5228,       611,
    54.543,       654,
   54.5632,       649,
   54.5833,       643,
   54.6035,       674,
   54.6237,       657,
   54.6438,       633,
    54.664,       639,
   54.6842,       600,
   54.7043,       632,
   54.7245,       678,
   54.7447,       683,
   54.7648,       625,
    54.785,       613,
   54.8052,       632,
   54.8254,       636,
   54.8455,       627,
   54.8657,       668,
   54.8859,       627,
    54.906,       628,
   54.9262,       614,
   54.9464,       660,
   54.9665,       611,
   54.9867,       653,
   55.0069,       641,
    55.027,       665,
   55.0472,       683,
   55.0674,       634,
   55.0875,       685,
   55.1077,       628,
   55.1279,       616,
   55.1481,       639,
   55.1682,       607,
   55.1884,       606,
   55.2086,       636,
   55.2287,       661,
   55.2489,       628,
   55.2691,       646,
   55.2892,       607,
   55.3094,       619,
   55.3296,       650,
   55.3497,       651,
   55.3699,       651,
   55.3901,       609,
   55.4102,       595,
   55.4304,       643,
   55.4506,       648,
   55.4707,       618,
   55.4909,       658,
   55.5111,       686,
   55.5313,       674,
   55.5514,       630,
   55.5716,       622,
   55.5918,       657,
   55.6119,       630,
   55.6321,       653,
   55.6523,       601,
   55.6724,       657,
   55.6926,       616,
   55.7128,       625,
   55.7329,       639,
   55.7531,       618,
   55.7733,       614,
   55.7934,       641,
   55.8136,       638,
   55.8338,       611,
    55.854,       650,
   55.8741,       605,
   55.8943,       630,
   55.9145,       637,
   55.9346,       672,
   55.9548,       626,
    55.975,       586,
   55.9951,       666,
   56.0153,       608,
   56.0355,       644,
   56.0556,       617,
   56.0758,       628,
    56.096,       639,
   56.1161,       688,
   56.1363,       595,
   56.1565,       660,
   56.1766,       644,
   56.1968,       629,
    56.217,       668,
   56.2372,       634,
   56.2573,       651,
   56.2775,       673,
   56.2977,       616,
   56.3178,       654,
    56.338,       605,
   56.3582,       603,
   56.3783,       600,
   56.3985,       583,
   56.4187,       663,
   56.4388,       653,
    56.459,       597,
   56.4792,       632,
   56.4993,       597,
   56.5195,       653,
   56.5397,       631,
   56.5598,       607,
     56.58,       611,
   56.6002,       664,
   56.6204,       628,
   56.6405,       597,
   56.6607,       706,
   56.6809,       652,
    56.701,       654,
   56.7212,       645,
   56.7414,       591,
   56.7615,       645,
   56.7817,       621,
   56.8019,       620,
    56.822,       637,
   56.8422,       631,
   56.8624,       591,
   56.8825,       635,
   56.9027,       635,
   56.9229,       653,
   56.9431,       631,
   56.9632,       635,
   56.9834,       645,
   57.0036,       573,
   57.0237,       637,
   57.0439,       650,
   57.0641,       602,
   57.0842,       602,
   57.1044,       630,
   57.1246,       611,
   57.1447,       650,
   57.1649,       684,
   57.1851,       639,
   57.2052,       651,
   57.2254,       612,
   57.2456,       627,
   57.2657,       649,
   57.2859,       624,
   57.3061,       657,
   57.3263,       640,
   57.3464,       675,
   57.3666,       583,
   57.3868,       568,
   57.4069,       603,
   57.4271,       618,
   57.4473,       653,
   57.4674,       617,
   57.4876,       607,
   57.5078,       645,
   57.5279,       639,
   57.5481,       647,
   57.5683,       650,
   57.5884,       577,
   57.6086,       626,
   57.6288,       636,
   57.6489,       597,
   57.6691,       661,
   57.6893,       657,
   57.7095,       655,
   57.7296,       648,
   57.7498,       616,
     57.77,       609,
   57.7901,       598,
   57.8103,       615,
   57.8305,       637,
   57.8506,       645,
   57.8708,       643,
    57.891,       631,
   57.9111,       607,
   57.9313,       599,
   57.9515,       659,
   57.9716,       658,
   57.9918,       627,
    58.012,       650,
   58.0322,       614,
   58.0523,       623,
   58.0725,       614,
   58.0927,       565,
   58.1128,       603,
    58.133,       613,
   58.1532,       637,
   58.1733,       636,
   58.1935,       631,
   58.2137,       609,
   58.2338,       546,
    58.254,       636,
   58.2742,       597,
   58.2943,       615,
   58.3145,       645,
   58.3347,       630,
   58.3548,       599,
    58.375,       603,
   58.3952,       625,
   58.4154,       606,
   58.4355,       626,
   58.4557,       616,
   58.4759,       657,
    58.496,       645,
   58.5162,       621,
   58.5364,       629,
   58.5565,       586,
   58.5767,       625,
   58.5969,       655,
    58.617,       654,
   58.6372,       633,
   58.6574,       664,
   58.6775,       661,
   58.6977,       570,
   58.7179,       632,
    58.738,       647,
   58.7582,       602,
   58.7784,       636,
   58.7986,       606,
   58.8187,       609,
   58.8389,       634,
   58.8591,       603,
   58.8792,       661,
   58.8994,       650,
   58.9196,       618,
   58.9397,       628,
   58.9599,       597,
   58.9801,       627,
   59.0002,       619,
   59.0204,       595,
   59.0406,       649,
   59.0607,       588,
   59.0809,       615,
   59.1011,       580,
   59.1213,       615,
   59.1414,       634,
   59.1616,       627,
   59.1818,       649,
   59.2019,       642,
   59.2221,       625,
   59.2423,       630,
   59.2624,       575,
   59.2826,       642,
   59.3028,       627,
   59.3229,       578,
   59.3431,       618,
   59.3633,       641,
   59.3834,       640,
   59.4036,       604,
   59.4238,       642,
   59.4439,       582,
   59.4641,       629,
   59.4843,       677,
   59.5045,       626,
   59.5246,       599,
   59.5448,       623,
    59.565,       600,
   59.5851,       622,
   59.6053,       641,
   59.6255,       652,
   59.6456,       613,
   59.6658,       602,
    59.686,       631,
   59.7061,       575,
   59.7263,       611,
   59.7465,       617,
   59.7666,       623,
   59.7868,       616,
    59.807,       634,
   59.8271,       585,
   59.8473,       644,
   59.8675,       664,
   59.8877,       662,
   59.9078,       595,
    59.928,       593,
   59.9482,       605,
   59.9683,       636,
   59.9885,       642,
   60.0087,       657,
   60.0288,       576,
    60.049,       608,
   60.0692,       610,
   60.0893,       642,
   60.1095,       581,
   60.1297,       612,
   60.1498,       619,
     60.17,       603,
   60.1902,       659,
   60.2104,       619,
   60.2305,       617,
   60.2507,       604,
   60.2709,       660,
    60.291,       610,
   60.3112,       619,
   60.3314,       639,
   60.3515,       619,
   60.3717,       608,
   60.3919,       596,
    60.412,       640,
   60.4322,       603,
   60.4524,       621,
   60.4725,       613,
   60.4927,       635,
   60.5129,       623,
    60.533,       619,
   60.5532,       610,
   60.5734,       617,
   60.5936,       610,
   60.6137,       638,
   60.6339,       619,
   60.6541,       640,
   60.6742,       620,
   60.6944,       613,
   60.7146,       626,
   60.7347,       618,
   60.7549,       630,
   60.7751,       670,
   60.7952,       582,
   60.8154,       566,
   60.8356,       650,
   60.8557,       565,
   60.8759,       608,
   60.8961,       605,
   60.9163,       625,
   60.9364,       619,
   60.9566,       600,
   60.9768,       564,
   60.9969,       603,
   61.0171,       615,
   61.0373,       593,
   61.0574,       639,
   61.0776,       609,
   61.0978,       641,
   61.1179,       593,
   61.1381,       596,
   61.1583,       618,
   61.1784,       605,
   61.1986,       668,
   61.2188,       658,
   61.2389,       629,
   61.2591,       590,
   61.2793,       632,
   61.2995,       616,
   61.3196,       603,
   61.3398,       631,
     61.36,       621,
   61.3801,       630,
   61.4003,       630,
   61.4205,       598,
   61.4406,       591,
   61.4608,       627,
    61.481,       587,
   61.5011,       611,
   61.5213,       654,
   61.5415,       595,
   61.5616,       634,
   61.5818,       642,
    61.602,       595,
   61.6221,       649,
   61.6423,       593,
   61.6625,       587,
   61.6827,       602,
   61.7028,       647,
    61.723,       657,
   61.7432,       617,
   61.7633,       626,
   61.7835,       562,
   61.8037,       627,
   61.8238,       647,
    61.844,       600,
   61.8642,       614,
   61.8843,       604,
   61.9045,       587,
   61.9247,       606,
   61.9448,       641,
    61.965,       645,
   61.9852,       595,
   62.0054,       636,
   62.0255,       623,
   62.0457,       604,
   62.0659,       584,
    62.086,       616,
   62.1062,       602,
   62.1264,       595,
   62.1465,       555,
   62.1667,       617,
   62.1869,       590,
    62.207,       607,
   62.2272,       654,
   62.2474,       571,
   62.2675,       575,
   62.2877,       584,
   62.3079,       663,
    62.328,       595,
   62.3482,       605,
   62.3684,       587,
   62.3886,       621,
   62.4087,       643,
   62.4289,       588,
   62.4491,       593,
   62.4692,       611,
   62.4894,       591,
   62.5096,       621,
   62.5297,       603,
   62.5499,       607,
   62.5701,       650,
   62.5902,       635,
   62.6104,       618,
   62.6306,       603,
   62.6507,       635,
   62.6709,       613,
   62.6911,       641,
   62.7112,       625,
   62.7314,       554,
   62.7516,       648,
   62.7718,       595,
   62.7919,       590,
   62.8121,       608,
   62.8323,       606,
   62.8524,       594,
   62.8726,       608,
   62.8928,       628,
   62.9129,       628,
   62.9331,       639,
   62.9533,       616,
   62.9734,       687,
   62.9936,       654,
   63.0138,       614,
   63.0339,       592,
   63.0541,       617,
   63.0743,       642,
   63.0945,       599,
   63.1146,       611,
   63.1348,       679,
    63.155,       587,
   63.1751,       661,
   63.1953,       575,
   63.2155,       573,
   63.2356,       556,
   63.2558,       643,
    63.276,       585,
   63.2961,       630,
   63.3163,       626,
   63.3365,       614,
   63.3566,       613,
   63.3768,       648,
    63.397,       614,
   63.4171,       618,
   63.4373,       642,
   63.4575,       569,
   63.4777,       587,
   63.4978,       588,
    63.518,       602,
   63.5382,       647,
   63.5583,       626,
   63.5785,       640,
   63.5987,       618,
   63.6188,       643,
    63.639,       614,
   63.6592,       633,
   63.6793,       596,
   63.6995,       627,
   63.7197,       597,
   63.7398,       648,
     63.76,       556,
   63.7802,       569,
   63.8003,       563,
   63.8205,       629,
   63.8407,       614,
   63.8609,       575,
    63.881,       609,
   63.9012,       621,
   63.9214,       595,
   63.9415,       664,
   63.9617,       589,
   63.9819,       607,
    64.002,       629,
   64.0222,       599,
   64.0424,       575,
   64.0625,       610,
   64.0827,       625,
   64.1029,       611,
    64.123,       570,
   64.1432,       591,
   64.1634,       609,
   64.1836,       624,
   64.2037,       623,
   64.2239,       614,
   64.2441,       639,
   64.2642,       646,
   64.2844,       608,
   64.3046,       578,
   64.3247,       635,
   64.3449,       620,
   64.3651,       621,
   64.3852,       627,
   64.4054,       632,
   64.4256,       639,
   64.4457,       600,
   64.4659,       626,
   64.4861,       629,
   64.5062,       593,
   64.5264,       641,
   64.5466,       657,
   64.5668,       585,
   64.5869,       606,
   64.6071,       593,
   64.6273,       625,
   64.6474,       628,
   64.6676,       580,
   64.6878,       659,
   64.7079,       567,
   64.7281,       609,
   64.7483,       630,
   64.7684,       598,
   64.7886,       596,
   64.8088,       585,
   64.8289,       616,
   64.8491,       641,
   64.8693,       614,
   64.8894,       569,
   64.9096,       610,
   64.9298,       653,
     64.95,       616,
   64.9701,       620,
   64.9903,       622,
   65.0105,       611,
   65.0306,       627,
   65.0508,       625,
    65.071,       592,
   65.0911,       626,
   65.1113,       606,
   65.1315,       588,
   65.1516,       607,
   65.1718,       614,
    65.192,       632,
   65.2121,       612,
   65.2323,       590,
   65.2525,       611,
   65.2727,       610,
   65.2928,       628,
    65.313,       620,
   65.3332,       604,
   65.3533,       610,
   65.3735,       594,
   65.3937,       604,
   65.4138,       602,
    65.434,       590,
   65.4542,       593,
   65.4743,       591,
   65.4945,       599,
   65.5147,       616,
   65.5348,       566,
    65.555,       627,
   65.5752,       673,
   65.5953,       663,
   65.6155,       593,
   65.6357,       628,
   65.6559,       612,
    65.676,       610,
   65.6962,       590,
   65.7164,       636,
   65.7365,       622,
   65.7567,       607,
   65.7769,       617,
    65.797,       632,
   65.8172,       595,
   65.8374,       623,
   65.8575,       605,
   65.8777,       629,
   65.8979,       614,
    65.918,       608,
   65.9382,       578,
   65.9584,       602,
   65.9786,       634,
   65.9987,       631,
   66.0189,       605,
   66.0391,       620,
   66.0592,       651,
   66.0794,       646,
   66.0996,       637,
   66.1197,       658,
   66.1399,       628,
   66.1601,       623,
   66.1802,       611,
   66.2004,       572,
   66.2206,       641,
   66.2407,       618,
   66.2609,       579,
   66.2811,       612,
   66.3012,       590,
   66.3214,       636,
   66.3416,       628,
   66.3618,       613,
   66.3819,       619,
   66.4021,       583,
   66.4223,       623,
   66.4424,       595,
   66.4626,       643,
   66.4828,       629,
   66.5029,       609,
   66.5231,       573,
   66.5433,       596,
   66.5634,       660,
   66.5836,       601,
   66.6038,       626,
   66.6239,       578,
   66.6441,       599,
   66.6643,       626,
   66.6844,       615,
   66.7046,       631,
   66.7248,       628,
    66.745,       571,
   66.7651,       561,
   66.7853,       605,
   66.8055,       613,
   66.8256,       601,
   66.8458,       615,
    66.866,       604,
   66.8861,       601,
   66.9063,       594,
   66.9265,       621,
   66.9466,       586,
   66.9668,       630,
    66.987,       642,
   67.0071,       605,
   67.0273,       600,
   67.0475,       606,
   67.0677,       625,
   67.0878,       606,
    67.108,       635,
   67.1282,       624,
   67.1483,       611,
   67.1685,       592,
   67.1887,       606,
   67.2088,       579,
    67.229,       652,
   67.2492,       579,
   67.2693,       646,
   67.2895,       604,
   67.3097,       621,
   67.3298,       581,
     67.35,       611,
   67.3702,       603,
   67.3903,       607,
   67.4105,       621,
   67.4307,       640,
   67.4509,       635,
    67.471,       586,
   67.4912,       620,
   67.5114,       605,
   67.5315,       592,
   67.5517,       629,
   67.5719,       590,
    67.592,       600,
   67.6122,       566,
   67.6324,       633,
   67.6525,       628,
   67.6727,       619,
   67.6929,       579,
    67.713,       605,
   67.7332,       585,
   67.7534,       652,
   67.7735,       630,
   67.7937,       630,
   67.8139,       605,
   67.8341,       629,
   67.8542,       630,
   67.8744,       634,
   67.8946,       602,
   67.9147,       651,
   67.9349,       600,
   67.9551,       604,
   67.9752,       647,
   67.9954,       579,
   68.0156,       625,
   68.0357,       628,
   68.0559,       596,
   68.0761,       594,
   68.0962,       594,
   68.1164,       639,
   68.1366,       621,
   68.1568,       624,
   68.1769,       593,
   68.1971,       595,
   68.2173,       591,
   68.2374,       614,
   68.2576,       649,
   68.2778,       644,
   68.2979,       651,
   68.3181,       611,
   68.3383,       617,
   68.3584,       623,
   68.3786,       586,
   68.3988,       612,
   68.4189,       614,
   68.4391,       600,
   68.4593,       596,
   68.4794,       610,
   68.4996,       629,
   68.5198,       638,
     68.54,       598,
   68.5601,       636,
   68.5803,       629,
   68.6005,       601,
   68.6206,       617,
   68.6408,       612,
    68.661,       597,
   68.6811,       683,
   68.7013,       625,
   68.7215,       675,
   68.7416,       616,
   68.7618,       627,
    68.782,       635,
   68.8021,       584,
   68.8223,       609,
   68.8425,       641,
   68.8626,       624,
   68.8828,       627,
    68.903,       622,
   68.9232,       579,
   68.9433,       581,
   68.9635,       637,
   68.9837,       596,
   69.0038,       607,
    69.024,       611,
   69.0442,       604,
   69.0643,       560,
   69.0845,       613,
   69.1047,       606,
   69.1248,       589,
    69.145,       643,
   69.1652,       631,
   69.1853,       561,
   69.2055,       631,
   69.2257,       640,
   69.2459,       619,
    69.266,       590,
   69.2862,       577,
   69.3064,       631,
   69.3265,       601,
   69.3467,       658,
   69.3669,       585,
    69.387,       659,
   69.4072,       587,
   69.4274,       589,
   69.4475,       595,
   69.4677,       633,
   69.4879,       597,
    69.508,       605,
   69.5282,       591,
   69.5484,       626,
   69.5685,       597,
   69.5887,       610,
   69.6089,       576,
   69.6291,       603,
   69.6492,       614,
   69.6694,       584,
   69.6896,       583,
   69.7097,       595,
   69.7299,       618,
   69.7501,       585,
   69.7702,       611,
   69.7904,       554,
   69.8106,       580,
   69.8307,       618,
   69.8509,       621,
   69.8711,       590,
   69.8912,       619,
   69.9114,       610,
   69.9316,       605,
   69.9517,       642,
   69.9719,       634,
   69.9921,       615,
   70.0123,       577,
   70.0324,       575,
   70.0526,       625,
   70.0728,       601,
   70.0929,       610,
   70.1131,       602,
   70.1333,       632,
   70.1534,       586,
   70.1736,       628,
   70.1938,       621,
   70.2139,       622,
   70.2341,       600,
   70.2543,       615,
   70.2744,       606,
   70.2946,       595,
   70.3148,       590,
    70.335,       620,
   70.3551,       635,
   70.3753,       601,
   70.3955,       586,
   70.4156,       608,
   70.4358,       598,
    70.456,       596,
   70.4761,       660,
   70.4963,       574,
   70.5165,       606,
   70.5366,       634,
   70.5568,       584,
    70.577,       623,
   70.5971,       613,
   70.6173,       616,
   70.6375,       592,
   70.6576,       588,
   70.6778,       641,
    70.698,       568,
   70.7182,       608,
   70.7383,       623,
   70.7585,       604,
   70.7787,       591,
   70.7988,       609,
    70.819,       608,
   70.8392,       577,
   70.8593,       587,
   70.8795,       576,
   70.8997,       617,
   70.9198,       620,
     70.94,       630,
   70.9602,       626,
   70.9803,       613,
   71.0005,       569,
   71.0207,       594,
   71.0409,       612,
    71.061,       588,
   71.0812,       629,
   71.1014,       601,
   71.1215,       614,
   71.1417,       619,
   71.1619,       621,
    71.182,       604,
   71.2022,       657,
   71.2224,       610,
   71.2425,       586,
   71.2627,       609,
   71.2829,       637,
    71.303,       608,
   71.3232,       597,
   71.3434,       658,
   71.3635,       638,
   71.3837,       632,
   71.4039,       592,
   71.4241,       674,
   71.4442,       623,
   71.4644,       612,
   71.4846,       636,
   71.5047,       666,
   71.5249,       623,
   71.5451,       636,
   71.5652,       656,
   71.5854,       622,
   71.6056,       659,
   71.6257,       600,
   71.6459,       659,
   71.6661,       646,
   71.6862,       634,
   71.7064,       622,
   71.7266,       606,
   71.7467,       619,
   71.7669,       629,
   71.7871,       668,
   71.8073,       638,
   71.8274,       595,
   71.8476,       651,
   71.8678,       585,
   71.8879,       656,
   71.9081,       608,
   71.9283,       638,
   71.9484,       649,
   71.9686,       600,
   71.9888,       642,
   72.0089,       622,
   72.0291,       625,
   72.0493,       617,
   72.0694,       629,
   72.0896,       663,
   72.1098,       614,
     72.13,       611,
   72.1501,       629,
   72.1703,       627,
   72.1905,       651,
   72.2106,       606,
   72.2308,       629,
    72.251,       686,
   72.2711,       621,
   72.2913,       609,
   72.3115,       649,
   72.3316,       614,
   72.3518,       620,
    72.372,       634,
   72.3921,       634,
   72.4123,       672,
   72.4325,       617,
   72.4526,       627,
   72.4728,       653,
    72.493,       622,
   72.5132,       614,
   72.5333,       636,
   72.5535,       665,
   72.5737,       621,
   72.5938,       674,
    72.614,       623,
   72.6342,       648,
   72.6543,       636,
   72.6745,       612,
   72.6947,       675,
   72.7148,       606,
    72.735,       583,
   72.7552,       661,
   72.7753,       595,
   72.7955,       683,
   72.8157,       654,
   72.8358,       699,
    72.856,       611,
   72.8762,       604,
   72.8964,       592,
   72.9165,       662,
   72.9367,       596,
   72.9569,       615,
    72.977,       649,
   72.9972,       642,
   73.0174,       636,
   73.0375,       653,
   73.0577,       614,
   73.0779,       608,
    73.098,       618,
   73.1182,       650,
   73.1384,       647,
   73.1585,       635,
   73.1787,       665,
   73.1989,       689,
   73.2191,       624,
   73.2392,       648,
   73.2594,       653,
   73.2796,       628,
   73.2997,       624,
   73.3199,       683,
   73.3401,       655,
   73.3602,       654,
   73.3804,       596,
   73.4006,       652,
   73.4207,       608,
   73.4409,       634,
   73.4611,       622,
   73.4812,       635,
   73.5014,       679,
   73.5216,       674,
   73.5417,       638,
   73.5619,       646,
   73.5821,       728,
   73.6023,       675,
   73.6224,       634,
   73.6426,       650,
   73.6628,       656,
   73.6829,       670,
   73.7031,       699,
   73.7233,       714,
   73.7434,       689,
   73.7636,       714,
   73.7838,       721,
   73.8039,       789,
   73.8241,       779,
   73.8443,       813,
   73.8644,       901,
   73.8846,       802,
   73.9048,       823,
   73.9249,       848,
   73.9451,       897,
   73.9653,       913,
   73.9855,       880,
   74.0056,       863,
   74.0258,       993,
    74.046,      1031,
   74.0661,      1082,
   74.0863,      1194,
   74.1065,      1306,
   74.1266,      1568,
   74.1468,      1894,
    74.167,      2769,
   74.1871,      4211,
   74.2073,      6961,
   74.2275,     10472,
   74.2476,     12348,
   74.2678,     10899,
    74.288,      7177,
   74.3082,      4384,
   74.3283,      3050,
   74.3485,      2388,
   74.3687,      2179,
   74.3888,      2366,
    74.409,      3278,
   74.4292,      4624,
   74.4493,      6254,
   74.4695,      6609,
   74.4897,      5396,
   74.5098,      3607,
     74.53,      2427,
   74.5502,      1732,
   74.5703,      1384,
   74.5905,      1192,
   74.6107,      1063,
   74.6308,       987,
    74.651,       904,
   74.6712,       931,
   74.6914,       847,
   74.7115,       791,
   74.7317,       774,
   74.7519,       802,
    74.772,       773,
   74.7922,       787,
   74.8124,       715,
   74.8325,       726,
   74.8527,       693,
   74.8729,       671,
    74.893,       714,
   74.9132,       696,
   74.9334,       698,
   74.9535,       674,
   74.9737,       664,
   74.9939,       650,
    75.014,       671,
   75.0342,       651,
   75.0544,       650,
   75.0746,       650,
   75.0947,       619,
   75.1149,       694,
   75.1351,       672,
   75.1552,       690,
   75.1754,       652,
   75.1956,       657,
   75.2157,       664,
   75.2359,       671,
   75.2561,       642,
   75.2762,       622,
   75.2964,       665,
   75.3166,       669,
   75.3367,       634,
   75.3569,       657,
   75.3771,       652,
   75.3973,       669,
   75.4174,       642,
   75.4376,       643,
   75.4578,       626,
   75.4779,       643,
   75.4981,       655,
   75.5183,       582,
   75.5384,       639,
   75.5586,       621,
   75.5788,       640,
   75.5989,       610,
   75.6191,       668,
   75.6393,       702,
   75.6594,       591,
   75.6796,       657,
   75.6998,       639,
   75.7199,       661,
   75.7401,       642,
   75.7603,       634,
   75.7805,       646,
   75.8006,       607,
   75.8208,       616,
    75.841,       638,
   75.8611,       628,
   75.8813,       657,
   75.9015,       617,
   75.9216,       618,
   75.9418,       705,
    75.962,       643,
   75.9821,       663,
   76.0023,       628,
   76.0225,       604,
   76.0426,       650,
   76.0628,       636,
    76.083,       656,
   76.1032,       627,
   76.1233,       622,
   76.1435,       602,
   76.1637,       721,
   76.1838,       654,
    76.204,       690,
   76.2242,       681,
   76.2443,       646,
   76.2645,       636,
   76.2847,       616,
   76.3048,       638,
    76.325,       641,
   76.3452,       645,
   76.3653,       603,
   76.3855,       627,
   76.4057,       607,
   76.4258,       637,
    76.446,       639,
   76.4662,       657,
   76.4864,       653,
   76.5065,       656,
   76.5267,       599,
   76.5469,       620,
    76.567,       576,
   76.5872,       656,
   76.6074,       637,
   76.6275,       611,
   76.6477,       632,
   76.6679,       634,
    76.688,       622,
   76.7082,       669,
   76.7284,       626,
   76.7485,       597,
   76.7687,       610,
   76.7889,       626,
    76.809,       585,
   76.8292,       661,
   76.8494,       618,
   76.8696,       612,
   76.8897,       598,
   76.9099,       623,
   76.9301,       594,
   76.9502,       619,
   76.9704,       617,
   76.9906,       633,
   77.0107,       627,
   77.0309,       638,
   77.0511,       617,
   77.0712,       631,
   77.0914,       644,
   77.1116,       667,
   77.1317,       656,
   77.1519,       648,
   77.1721,       636,
   77.1923,       597,
   77.2124,       622,
   77.2326,       650,
   77.2528,       618,
   77.2729,       616,
   77.2931,       642,
   77.3133,       630,
   77.3334,       593,
   77.3536,       607,
   77.3738,       591,
   77.3939,       648,
   77.4141,       601,
   77.4343,       580,
   77.4544,       623,
   77.4746,       627,
   77.4948,       624,
   77.5149,       606,
   77.5351,       627,
   77.5553,       611,
   77.5755,       575,
   77.5956,       597,
   77.6158,       609,
    77.636,       612,
   77.6561,       605,
   77.6763,       616,
   77.6965,       610,
   77.7166,       618,
   77.7368,       619,
    77.757,       633,
   77.7771,       600,
   77.7973,       590,
   77.8175,       607,
   77.8376,       652,
   77.8578,       629,
    77.878,       640,
   77.8981,       593,
   77.9183,       678,
   77.9385,       646,
   77.9587,       650,
   77.9788,       633,
    77.999,       618,
