;RAW4.00
[RawHeader]
Date=11/26/2025
EstimatedTotalTime=426.6
FurtherDQLReading=0
HardwareIndicator=65519
MeasuredTotalTime=4.29393
MeasurementFlag=1
NumberOfMeasuredRanges=1
NumberOfRanges=1
Time=13:59:29

[VarInfo]
Type=USER
Flags=0
Value=Lab Manager

[VarInfo]
Type=SAMPLEID
Flags=0
Value=Commander Sample ID

[VarInfo]
Type=COMMENT
Flags=0
Value=

[VarInfo]
Type=UTF
Flags=0
Value=

[VarInfo]
Type=CREATOR
Flags=0
Value=V5Converter

[VarInfo]
Type=CREATOR_VERSION
Flags=0
Value=4.4.16.0

[HardwareConfiguration]
AbsorptionFactor=9999
ActivateAbsorber=0
Alpha1=1.5406
Alpha2=1.54439
AlphaAverage=1.54184
AlphaRatio=0.5
Analyzer=0
Anode=Cu
AntiScatteringSlit=9999
BeamOpticsFlags=0
Beta=1.39222
BetaRelativeIntensity=0
DeactivateAbsorber=0
DetectorSlit=9999
DivergenceSlit=9999
GoniometerControl=0
GoniometerDiameter=282
GoniometerModel=256
GoniometerStage=7
Monochromator=0
NearSampleSlit=9999
PrimarySollerSlit=9999
SampleChanger=0
SecondSollerSlit=9999
SynchronousAxis=0
ThinFilmAttachment=9999
WaveUnit=A

[RangeHeader]
ActuallyUsedLambda=1.54184
AdditionalDetectorMask=257
DataRecordLength=4
DelayTime=0
DisplayPlaneNumber=0
EstimatedScanTime=427
ExtraParametersMask=0
GeneratorCurrent=10
GeneratorVoltage=30
Increment=0.0201685
Increment3=0
NumberOfCompletedData=1885
NumberOfCounts=1
NumberOfDetectors=0
NumberOfDrives=3
NumberOfEncoderDrives=0
NumberOfMeasuredData=1885
NumberOfVaryingParameters=0
RangeStartTime=0
RotationSpeed=0
ScanMode=1
ScanType=Locked Coupled
SimulatedMeasConditions=0
SlitChangerIn=0
SmootingWidth=0
Start=40.0015
Steps=1885
SynchronousRotation=0
Time=33

[VarInfo]
Type=PSD_DISCRIM
Flags=0
Value=0.11;0.5

[VarInfo]
Type=OPTICS_V5
Flags=0
Value=H4sIAAAAAAAEAO1d63KjOhJ+Fda/zqmtBIPtXKaITzm2J+OaOHbFTnKmtrZcBORYZzC4AOey//d99hl2X2x1QViIS8C3JBN+TCaodWm6+2vUUkfS/nieW9IjcD3o2GcV5bBakYBtOCa0H84qS396oBxV/mhqF44NnTnwgdt25gvHBrbf0X1dQq1t78uzB88qM99ffJHlp6enw6faoeM+yGq1qsh/9i9HxgzM9QNoe75uG6AStjJfb1WRbqEH7y1wpc/BWWXFR0joAM9w4cInL/Bj4UHLsSW+3oXrLBc9NBZ6t3Pgojcb3P8FDH+o+7OzitwBj9AAMt+CrxUfl1Lblu55QRehTORzoM8XqLDt2L4ObeBy/coBc6yHluEvdYtxoR6o1ePT02O5h8TkLue4tzhrTW2EZGjqqBswQr3oFvyXjl+9OdUtD2hyGln7c259hcAyrwHqHhq4EDFpA/KbJ8lNjfKD1ToCFipvdm00JDA1OUbR6Btwou9Ab2HpL824AjQ5tXK8m+bF4OrHhPzodEft64TGrBVWDOsoPhpP1bBWhrxWvISy1r0hIUP+4r8skMLHrm78xG8sGODQhXPdfSHkZBMMakgD9GxISBvSeHkPOIFIQeOidilHx44baRI9r5mSRmyEDSxUYBJZ3blu/xy4JnCvAfYzAL0wsdX3b8s5NVnMwIfj6+8T9KPV/l7IxHm5Jhp5z0OvBh9BE+kGCS98DAk920dCZMIVSikeHA9SJulgmhwp1bAq2ZMXfZT4B2LSAxc+QFu3ogSlwl6OWi7Ssb/0moPwnSLFGmsYPPedJdIj0qJQrgWE0MJ5JCOdEXICmjFtjmnJUA7J0tRxpRHQLUBtYA3AytxYcejGiMm4JZa46kmmLG0LrhEWBa3xcus++8A2MZDfDYZpCWdMkQKtj5nwHfcltGVFk+OFGseMJxH2qHoYWND7cnJosmJN5ku1uCnh1+H65qyTKx3Y545jAR1NEG5s6BPpdiDSG56bXcI59IlYwiKvWdVk7knrgKm+tPxb3VoCboigVyQ96CPXTshnFewlKri/oQta5l9LD8GnYEuZYx67mbHTJoqe6ZblPK0cjVCOarZnwPgJzFUVVqC1ESPOHKsWvx33pNH5Zl7erhEyxkg2xVq1lr7TdoHug6HrLIDrvzAWEyiR9/eIRfdMhLKr5fweuE21rslCEdaQRS08UPF//xMyUSUc9B0TNG8Quqbos4xMnTwz90Y+PzEHluy7tuWt5HgP/ND5vNXOHBXjLvaN2aNbYuh5A79Evm3IJvErCL6JJ23LP418rD3OPSHRTOHDEjnla/gw85sIdabECnU0BoKwUKWYS+vrz5fAfvBnTbXRwKJhj2nOjrJISkNktZevObqMVm/q5DL4SnFwGS02cm5pFninPwKqkpa1mOmKYIUieVuWOJh2nCVqyWzxf//ehzWm2Nxw9uJBQ7dIeQJnTA/KYaNePXrNFtfo7ca2MPfItOjcf/WMZelYS+paugfVBtErK9H60Ibz5bx5oBwenx4fndaUWv3kSK0pjePu32vVE4S4oAZGIvklvWZQ4W0Rs4b0UpC0Rk/7QJiajTD10yOsXjvdJsRYdyXGNhLfFkDGuto1yh6Bqz+IoV6M/ulxppzUt4kz1l2Js43EtwWcsa52jLNz4OupIMPET46w2qmqqttD2Kq7EmEbiW9jhK262jHCrvGaRirECHVXGHuvCFutth02NsJWrKMSVWsKbh08xTrZCZK+OsbSG7gQ2D5ZHRSgJJK3tspG1g4H057tH9XfH6CibEVXr/OjKbkXhfRCBYDfqOeDOWLs0nmABl3VvJn0rm5bl73OpP2tN9TkFYkJfAye/WbPftQtiMQzg4uVjCJaIvW07+CFjI1lEf6uyTEWsnm67F2lsnIJbSARW0kbWtlk6OEgY+yhA20/e3B1k8GZLoaD0auqCHeKD6S58wgk35HmwJjpNrYKCTmTxd/SeKxl8/ienF2WXefzdFk9bOTm6N5Lz546UqiqhAVciZbr3FOQY3BWIVUkVBrdJr+ZtC6H31rRcrGRhEeyyEjkXXKxo0bYURPZUVPYUbPYUQuzEywL8PxEyoQBQloib5PW7UUWe0HrokySmCrg8D78PeybkkWGzrvjVjIvuH4+FiIbUQEDqBXeyxN46LJSkY3uZbffvRqnSMV2TCAFbaXVSDlkQmfBvNq4EkHsASVZZdetcW+QpTTSOp+8YlOLgL9pYnk4ToQicvl10J4MrpMZJONJkeZyfMe6Ed+xvgA2skTfcYU8TFacvPmcsQFLZ8dr7r82tXQiP3O7dSw/voYXlO4q5vl5u6WEjcypLxqFfRNqVSHyCL4FKaFHctihVBMCjFp1f7FErbF+MBEXRsEvZLo55TW19tJ1sT+LmlpQuitTm7f2YWpolHD6sQ1TaySFsh/E0uKy2LulDZ0nkgHOmxQp25WV3aUEnW+xcHMnRJr5lluqhymm+EkWW+4491hde7Ul3ssWbV9+7YtfJA0UTQyNGXBfyVbbPA8ud74bklUw60j9YgWfilQ/I4dzraYmBmuZ2QhiKJW9qxqLdLI3h6IxR/YytzAXT1vD42MIIXVJnC4nR8cylyaJ7OZRhxZeJcCPHu2eWH2ZQFkmUJYJlGUCZZlA+fE2xcsEyvezJV4mUP6aCCsTKN8TxsoEyl8VZ2UC5XvCWZlA+ashrEygfE8IKxMoywTKMoGyTKAsEyjLBMoygbJMoCwTKMsEyjKBskygLBMoywTKMoGyTKAsEyjLBMoygbJMoHzr+KNMoCwTKD9tAiXLkUS/iumT7KzT+Cmg4tm7GScqd+cL/4UkG4arGcVOT+72h4PRhP4scnoyGTg0xcTzk2U+BzLzcGMl7XBjde+HGw8WbefceR5MR45lATfhiGNKyDjkmKsg/WbotmTQQ8ElNJZEifQE7N/XgX9k+LhXSSBnuYaE6hunwkb7FPSZfOxxRGTIPPKL8PePe2KymphYK0bAR+scevtxXAin6Q2diJrmRGpv50S+wmdgEkNlcw/RmVjQz3IliCz1U2CAaRv4kdXICV5EJGb6ELHy5h6E61FQZYr/YA2o98gntQ/sOmq5XMfxeudlE7OmVzSsTJpYMhZe0hcRy1SR/jGf/zPDjH/DR/7fA2QfErQ9hAVgol98R9I5hWWaMq5mhBds4KeJUp0oaQYcIb5mwIVtN52ZmPP5qH/5US30lx930PRnYm4HLtvZktP8/WxBxzgL44DNsuvjPeVdZqh+7nWGuODWWWeI97KTtI5vABumgB1a+LnBszXslNBZz+i3gpzt3wSirjOzGenzhQXuZgBYY/QC/KUgIkkjH65UJ0ChmfamMj+F+lCxGJtFbxiJ1dIisfpGkRjhMR6HvT9h3thLD5hkeHHgLInKwm1g17oJl16CldWVYB+fXrg3mE494KdZfesZevz3Iay2B1ceYybnbh1ywVU1LSlVPTypn6qNRkNN8LvHjcOTRv24dqQqvK8VhNAM7mETbitc+w7DEUCRgJl9i2FYh7v9roNCXwNnMmzhLkORh4SYKLFGsfsMwz42ifVFRj70nYaF9FrM/4zwzYaj4jcbRuW787sNw+F2cbvhyRss3uHlOks3wMyxzMQtgMsX+xm8pBxzcfnj6s/ujy654bCjSsOZ7olX4OYEsRyOEwezQMpa3mDWKOO8X3k4Wj2jProvYAvX6KYzLmrzl7v28CTPUlxNiU9Yi8wL0ecUu0XdWrmWfniNJk2pxn6HJHazGl4xZ9PpjyfkXwFHw4ba6R6gstmscZebgP09bgIKCIswkLYN2N/zNmAmj6JSs3YC+59rJ1Cp53Ii1c+wFVhGSkUjpbRAqXF4dHrSUJRqPWmBqqEcHldP68dqfQeB0sontAHGieA9hcKI4+SmzLSadMAw70kjnLfkkW8dVkPLMIDnOS4E3hoRE+Mi7j2jlLwRUvyl1/ekrIcPHRqtqcpiLudicNWekB9FHA7lZ+eh0Ri4qHQnkdHp3mdFwxkkShPAfO0EGXBRYgTUqKlErdE1Wb0CGJXZGHSdNqGDKCsJ1TJnP6vqMuJUZpxuDuAUxgVFpsREEgUYMFu+rxszPNBZ5WDPRwluc5pzmitr4SQ+y+l5TBQhKMMCjfMcZLfIWj48ALPjYkzSv8ZE3eHvWs9sIu2S3oNHTCEVRwtgwGnwt6KsUpyC4BLvvcgEK46DYs5u+K03mpAfRZxdFKHbnGBVi0yvQisOP5lEYfRDEPwf22IqXU7pckqXI7qcECvsd+8VLsZPznhGTjB6jZVIzZz8ZA+dc9yig6ZEJvFifFQxXo8YAd9H0PIkfi6GHAXNPKxILbzB7vVR6AbplI5NtLGOuVT/5i2e1Rn4EFu+VFtBkewhB6uqmiyUa3yqI/WAkWUTj/6JxSqYYK6D6Pv/u9RXv2COAAA=

[PSD]
ActualTwoTheta=9999
FirstUsedChannel=0
FixedPSD=0
PSDOpening=4.99171
PSDType=5

[Drive]
DriveFlags=1
DriveName=2Theta
DriveNumber=2
DriveOffset=0
OffsetIndex=0
OscillationAmplitude=0
OscillationSpeed=0
StartPosition=40.0015

[Drive]
DriveFlags=1
DriveName=Theta
DriveNumber=1
DriveOffset=0
OffsetIndex=0
OscillationAmplitude=0
OscillationSpeed=0
StartPosition=20.0007

[Drive]
DriveFlags=1
DriveName=Phi
DriveNumber=3
DriveOffset=0
OffsetIndex=0
OscillationAmplitude=0
OscillationSpeed=0
StartPosition=0

[Data]
     Angle,       PSD,
   40.0015,       578,
   40.0217,       627,
   40.0418,       633,
    40.062,       641,
   40.0822,       607,
   40.1023,       595,
   40.1225,       654,
   40.1427,       608,
   40.1628,       620,
    40.183,       590,
   40.2032,       597,
   40.2233,       602,
   40.2435,       589,
   40.2637,       655,
   40.2838,       638,
    40.304,       580,
   40.3242,       668,
   40.3444,       661,
   40.3645,       604,
   40.3847,       608,
   40.4049,       626,
    40.425,       633,
   40.4452,       615,
   40.4654,       644,
   40.4855,       628,
   40.5057,       612,
   40.5259,       623,
    40.546,       614,
   40.5662,       623,
   40.5864,       611,
   40.6065,       648,
   40.6267,       616,
   40.6469,       623,
   40.6671,       658,
   40.6872,       658,
   40.7074,       638,
   40.7276,       622,
   40.7477,       615,
   40.7679,       588,
   40.7881,       555,
   40.8082,       613,
   40.8284,       660,
   40.8486,       625,
   40.8687,       583,
   40.8889,       618,
   40.9091,       624,
   40.9292,       577,
   40.9494,       604,
   40.9696,       669,
   40.9897,       627,
   41.0099,       600,
   41.0301,       624,
   41.0503,       659,
   41.0704,       581,
   41.0906,       598,
   41.1108,       604,
   41.1309,       628,
   41.1511,       616,
   41.1713,       630,
   41.1914,       584,
   41.2116,       575,
   41.2318,       680,
   41.2519,       631,
   41.2721,       648,
   41.2923,       638,
   41.3124,       616,
   41.3326,       637,
   41.3528,       600,
   41.3729,       587,
   41.3931,       645,
   41.4133,       591,
   41.4335,       649,
   41.4536,       652,
   41.4738,       591,
    41.494,       628,
   41.5141,       645,
   41.5343,       630,
   41.5545,       586,
   41.5746,       616,
   41.5948,       597,
    41.615,       603,
   41.6351,       607,
   41.6553,       632,
   41.6755,       626,
   41.6956,       642,
   41.7158,       651,
    41.736,       693,
   41.7562,       628,
   41.7763,       665,
   41.7965,       636,
   41.8167,       601,
   41.8368,       699,
    41.857,       599,
   41.8772,       630,
   41.8973,       632,
   41.9175,       637,
   41.9377,       685,
   41.9578,       681,
    41.978,       696,
   41.9982,       729,
   42.0183,       754,
   42.0385,       720,
   42.0587,       731,
   42.0788,       683,
    42.099,       696,
   42.1192,       768,
   42.1394,       763,
   42.1595,       744,
   42.1797,       720,
   42.1999,       743,
     42.22,       715,
   42.2402,       717,
   42.2604,       774,
   42.2805,       744,
   42.3007,       805,
   42.3209,       675,
    42.341,       760,
   42.3612,       772,
   42.3814,       756,
   42.4015,       783,
   42.4217,       773,
   42.4419,       755,
    42.462,       687,
   42.4822,       741,
   42.5024,       716,
   42.5226,       759,
   42.5427,       773,
   42.5629,       771,
   42.5831,       808,
   42.6032,       778,
   42.6234,       775,
   42.6436,       754,
   42.6637,       769,
   42.6839,       746,
   42.7041,       809,
   42.7242,       744,
   42.7444,       755,
   42.7646,       772,
   42.7847,       788,
   42.8049,       780,
   42.8251,       729,
   42.8453,       766,
   42.8654,       778,
   42.8856,       802,
   42.9058,       804,
   42.9259,       860,
   42.9461,       821,
   42.9663,       799,
   42.9864,       801,
   43.0066,       842,
   43.0268,       863,
   43.0469,       949,
   43.0671,       961,
   43.0873,      1001,
   43.1074,      1044,
   43.1276,      1040,
   43.1478,      1124,
   43.1679,      1109,
   43.1881,      1185,
   43.2083,      1242,
   43.2285,      1230,
   43.2486,      1410,
   43.2688,      1591,
    43.289,      1746,
   43.3091,      1885,
   43.3293,      2027,
   43.3495,      2134,
   43.3696,      2257,
   43.3898,      2636,
     43.41,      3492,
   43.4301,      5587,
   43.4503,     10732,
   43.4705,     24601,
   43.4906,     44517,
   43.5108,     51380,
    43.531,     35734,
   43.5511,     18311,
   43.5713,     13549,
   43.5915,     19362,
   43.6117,     26396,
   43.6318,     24670,
    43.652,     14565,
   43.6722,      6994,
   43.6923,      3933,
   43.7125,      2789,
   43.7327,      2204,
   43.7528,      1939,
    43.773,      1769,
   43.7932,      1713,
   43.8133,      1516,
   43.8335,      1435,
   43.8537,      1313,
   43.8738,      1188,
    43.894,      1101,
   43.9142,      1066,
   43.9344,      1012,
   43.9545,      1029,
   43.9747,       960,
   43.9949,       868,
    44.015,       876,
   44.0352,       816,
   44.0554,       838,
   44.0755,       869,
   44.0957,       816,
   44.1159,       814,
    44.136,       772,
   44.1562,       774,
   44.1764,       844,
   44.1965,       819,
   44.2167,       753,
   44.2369,       771,
    44.257,       708,
   44.2772,       813,
   44.2974,       760,
   44.3176,       730,
   44.3377,       766,
   44.3579,       804,
   44.3781,       756,
   44.3982,       745,
   44.4184,       771,
   44.4386,       753,
   44.4587,       763,
   44.4789,       755,
   44.4991,       769,
   44.5192,       721,
   44.5394,       699,
   44.5596,       726,
   44.5797,       728,
   44.5999,       701,
   44.6201,       734,
   44.6402,       756,
   44.6604,       763,
   44.6806,       737,
   44.7008,       703,
   44.7209,       752,
   44.7411,       698,
   44.7613,       678,
   44.7814,       685,
   44.8016,       702,
   44.8218,       703,
   44.8419,       739,
   44.8621,       715,
   44.8823,       685,
   44.9024,       660,
   44.9226,       691,
   44.9428,       669,
   44.9629,       730,
   44.9831,       688,
   45.0033,       733,
   45.0235,       694,
   45.0436,       694,
   45.0638,       700,
    45.084,       655,
   45.1041,       693,
   45.1243,       681,
   45.1445,       657,
   45.1646,       670,
   45.1848,       688,
    45.205,       677,
   45.2251,       695,
   45.2453,       738,
   45.2655,       745,
   45.2856,       651,
   45.3058,       755,
    45.326,       673,
   45.3461,       693,
   45.3663,       673,
   45.3865,       669,
   45.4067,       718,
   45.4268,       711,
    45.447,       709,
   45.4672,       714,
   45.4873,       691,
   45.5075,       749,
   45.5277,       702,
   45.5478,       713,
    45.568,       702,
   45.5882,       700,
   45.6083,       654,
   45.6285,       675,
   45.6487,       698,
   45.6688,       722,
    45.689,       673,
   45.7092,       658,
   45.7294,       670,
   45.7495,       733,
   45.7697,       656,
   45.7899,       674,
     45.81,       712,
   45.8302,       696,
   45.8504,       670,
   45.8705,       632,
   45.8907,       714,
   45.9109,       688,
    45.931,       673,
   45.9512,       686,
   45.9714,       652,
   45.9915,       674,
   46.0117,       676,
   46.0319,       698,
    46.052,       681,
   46.0722,       698,
   46.0924,       693,
   46.1126,       689,
   46.1327,       684,
   46.1529,       689,
   46.1731,       633,
   46.1932,       652,
   46.2134,       696,
   46.2336,       662,
   46.2537,       654,
   46.2739,       653,
   46.2941,       676,
   46.3142,       626,
   46.3344,       662,
   46.3546,       656,
   46.3747,       685,
   46.3949,       611,
   46.4151,       666,
   46.4352,       683,
   46.4554,       667,
   46.4756,       666,
   46.4958,       665,
   46.5159,       632,
   46.5361,       663,
   46.5563,       687,
   46.5764,       695,
   46.5966,       637,
   46.6168,       687,
   46.6369,       691,
   46.6571,       671,
   46.6773,       681,
   46.6974,       671,
   46.7176,       648,
   46.7378,       638,
   46.7579,       673,
   46.7781,       673,
   46.7983,       639,
   46.8185,       662,
   46.8386,       732,
   46.8588,       714,
    46.879,       635,
   46.8991,       676,
   46.9193,       670,
   46.9395,       668,
   46.9596,       606,
   46.9798,       643,
        47,       662,
   47.0201,       602,
   47.0403,       670,
   47.0605,       639,
   47.0806,       672,
   47.1008,       666,
    47.121,       695,
   47.1411,       650,
   47.1613,       662,
   47.1815,       617,
   47.2017,       641,
   47.2218,       685,
    47.242,       643,
   47.2622,       665,
   47.2823,       659,
   47.3025,       644,
   47.3227,       653,
   47.3428,       650,
    47.363,       678,
   47.3832,       670,
   47.4033,       592,
   47.4235,       671,
   47.4437,       634,
   47.4638,       661,
    47.484,       686,
   47.5042,       656,
   47.5243,       688,
   47.5445,       671,
   47.5647,       687,
   47.5849,       631,
    47.605,       670,
   47.6252,       666,
   47.6454,       642,
   47.6655,       672,
   47.6857,       638,
   47.7059,       665,
    47.726,       640,
   47.7462,       663,
   47.7664,       658,
   47.7865,       624,
   47.8067,       636,
   47.8269,       647,
    47.847,       695,
   47.8672,       669,
   47.8874,       668,
   47.9076,       670,
   47.9277,       648,
   47.9479,       672,
   47.9681,       654,
   47.9882,       686,
   48.0084,       640,
   48.0286,       657,
   48.0487,       639,
   48.0689,       608,
   48.0891,       652,
   48.1092,       667,
   48.1294,       670,
   48.1496,       645,
   48.1697,       631,
   48.1899,       668,
   48.2101,       647,
   48.2302,       655,
   48.2504,       654,
   48.2706,       609,
   48.2908,       677,
   48.3109,       670,
   48.3311,       700,
   48.3513,       653,
   48.3714,       673,
   48.3916,       655,
   48.4118,       662,
   48.4319,       632,
   48.4521,       633,
   48.4723,       622,
   48.4924,       677,
   48.5126,       688,
   48.5328,       637,
   48.5529,       646,
   48.5731,       648,
   48.5933,       646,
   48.6134,       606,
   48.6336,       625,
   48.6538,       650,
    48.674,       653,
   48.6941,       618,
   48.7143,       637,
   48.7345,       616,
   48.7546,       618,
   48.7748,       638,
    48.795,       630,
   48.8151,       673,
   48.8353,       666,
   48.8555,       648,
   48.8756,       664,
   48.8958,       644,
    48.916,       681,
   48.9361,       645,
   48.9563,       680,
   48.9765,       680,
   48.9967,       682,
   49.0168,       662,
    49.037,       647,
   49.0572,       659,
   49.0773,       716,
   49.0975,       704,
   49.1177,       650,
   49.1378,       658,
    49.158,       649,
   49.1782,       722,
   49.1983,       670,
   49.2185,       649,
   49.2387,       576,
   49.2588,       682,
    49.279,       683,
   49.2992,       686,
   49.3193,       699,
   49.3395,       655,
   49.3597,       700,
   49.3799,       613,
      49.4,       663,
   49.4202,       696,
   49.4404,       716,
   49.4605,       643,
   49.4807,       671,
   49.5009,       623,
    49.521,       670,
   49.5412,       657,
   49.5614,       677,
   49.5815,       694,
   49.6017,       648,
   49.6219,       696,
    49.642,       713,
   49.6622,       657,
   49.6824,       694,
   49.7025,       682,
   49.7227,       689,
   49.7429,       716,
   49.7631,       690,
   49.7832,       698,
   49.8034,       680,
   49.8236,       687,
   49.8437,       720,
   49.8639,       715,
   49.8841,       656,
   49.9042,       645,
   49.9244,       721,
   49.9446,       665,
   49.9647,       692,
   49.9849,       708,
   50.0051,       696,
   50.0252,       700,
   50.0454,       676,
   50.0656,       716,
   50.0858,       682,
   50.1059,       739,
   50.1261,       734,
   50.1463,       721,
   50.1664,       785,
   50.1866,       774,
   50.2068,       788,
   50.2269,       746,
   50.2471,       785,
   50.2673,       835,
   50.2874,       834,
   50.3076,       849,
   50.3278,       905,
   50.3479,       916,
   50.3681,       964,
   50.3883,      1002,
   50.4084,      1047,
   50.4286,      1131,
   50.4488,      1223,
    50.469,      1208,
   50.4891,      1270,
   50.5093,      1516,
   50.5295,      1873,
   50.5496,      2693,
   50.5698,      3965,
     50.59,      6420,
   50.6101,      9838,
   50.6303,     11909,
   50.6505,     11100,
   50.6706,      7708,
   50.6908,      5333,
    50.711,      4526,
   50.7311,      5086,
   50.7513,      6365,
   50.7715,      6682,
   50.7917,      5469,
   50.8118,      3714,
    50.832,      2449,
   50.8522,      1810,
   50.8723,      1445,
   50.8925,      1219,
   50.9127,      1159,
   50.9328,      1003,
    50.953,       991,
   50.9732,       932,
   50.9933,       910,
   51.0135,       797,
   51.0337,       806,
   51.0538,       767,
    51.074,       758,
   51.0942,       752,
   51.1143,       742,
   51.1345,       748,
   51.1547,       695,
   51.1749,       731,
    51.195,       694,
   51.2152,       697,
   51.2354,       710,
   51.2555,       679,
   51.2757,       673,
   51.2959,       699,
    51.316,       662,
   51.3362,       664,
   51.3564,       689,
   51.3765,       676,
   51.3967,       641,
   51.4169,       692,
    51.437,       677,
   51.4572,       648,
   51.4774,       678,
   51.4975,       661,
   51.5177,       657,
   51.5379,       606,
   51.5581,       682,
   51.5782,       652,
   51.5984,       724,
   51.6186,       670,
   51.6387,       624,
   51.6589,       651,
   51.6791,       658,
   51.6992,       641,
   51.7194,       655,
   51.7396,       664,
   51.7597,       644,
   51.7799,       641,
   51.8001,       666,
   51.8202,       652,
   51.8404,       704,
   51.8606,       625,
   51.8808,       649,
   51.9009,       643,
   51.9211,       675,
   51.9413,       656,
   51.9614,       653,
   51.9816,       605,
   52.0018,       604,
   52.0219,       717,
   52.0421,       656,
   52.0623,       649,
   52.0824,       636,
   52.1026,       623,
   52.1228,       626,
   52.1429,       658,
   52.1631,       640,
   52.1833,       668,
   52.2034,       592,
   52.2236,       680,
   52.2438,       622,
    52.264,       690,
   52.2841,       643,
   52.3043,       622,
   52.3245,       643,
   52.3446,       635,
   52.3648,       636,
    52.385,       629,
   52.4051,       608,
   52.4253,       675,
   52.4455,       592,
   52.4656,       624,
   52.4858,       644,
    52.506,       661,
   52.5261,       631,
   52.5463,       650,
   52.5665,       621,
   52.5866,       635,
   52.6068,       652,
    52.627,       666,
   52.6472,       682,
   52.6673,       669,
   52.6875,       636,
   52.7077,       627,
   52.7278,       657,
    52.748,       609,
   52.7682,       644,
   52.7883,       656,
   52.8085,       656,
   52.8287,       638,
   52.8488,       633,
    52.869,       635,
   52.8892,       611,
   52.9093,       672,
   52.9295,       658,
   52.9497,       653,
   52.9699,       671,
     52.99,       635,
   53.0102,       637,
   53.0304,       561,
   53.0505,       628,
   53.0707,       621,
   53.0909,       690,
    53.111,       630,
   53.1312,       649,
   53.1514,       637,
   53.1715,       625,
   53.1917,       629,
   53.2119,       594,
    53.232,       684,
   53.2522,       632,
   53.2724,       613,
   53.2925,       606,
   53.3127,       646,
   53.3329,       647,
   53.3531,       625,
   53.3732,       577,
   53.3934,       651,
   53.4136,       670,
   53.4337,       618,
   53.4539,       655,
   53.4741,       631,
   53.4942,       636,
   53.5144,       624,
   53.5346,       666,
   53.5547,       624,
   53.5749,       582,
   53.5951,       665,
   53.6152,       602,
   53.6354,       649,
   53.6556,       657,
   53.6757,       657,
   53.6959,       625,
   53.7161,       619,
   53.7363,       619,
   53.7564,       647,
   53.7766,       629,
   53.7968,       638,
   53.8169,       613,
   53.8371,       608,
   53.8573,       597,
   53.8774,       671,
   53.8976,       635,
   53.9178,       591,
   53.9379,       588,
   53.9581,       634,
   53.9783,       643,
   53.9984,       610,
   54.0186,       621,
   54.0388,       606,
    54.059,       617,
   54.0791,       616,
   54.0993,       623,
   54.1195,       656,
   54.1396,       632,
   54.1598,       634,
     54.18,       623,
   54.2001,       637,
   54.2203,       624,
   54.2405,       640,
   54.2606,       595,
   54.2808,       639,
    54.301,       647,
   54.3211,       616,
   54.3413,       642,
   54.3615,       621,
   54.3816,       596,
   54.4018,       626,
    54.422,       629,
   54.4422,       587,
   54.4623,       583,
   54.4825,       644,
   54.5027,       639,
   54.5228,       616,
    54.543,       627,
   54.5632,       630,
   54.5833,       596,
   54.6035,       611,
   54.6237,       621,
   54.6438,       618,
    54.664,       627,
   54.6842,       602,
   54.7043,       616,
   54.7245,       654,
   54.7447,       647,
   54.7648,       605,
    54.785,       626,
   54.8052,       632,
   54.8254,       635,
   54.8455,       638,
   54.8657,       672,
   54.8859,       635,
    54.906,       598,
   54.9262,       630,
   54.9464,       627,
   54.9665,       612,
   54.9867,       601,
   55.0069,       584,
    55.027,       618,
   55.0472,       637,
   55.0674,       586,
   55.0875,       679,
   55.1077,       612,
   55.1279,       593,
   55.1481,       657,
   55.1682,       586,
   55.1884,       595,
   55.2086,       627,
   55.2287,       639,
   55.2489,       606,
   55.2691,       591,
   55.2892,       638,
   55.3094,       586,
   55.3296,       618,
   55.3497,       654,
   55.3699,       600,
   55.3901,       637,
   55.4102,       597,
   55.4304,       598,
   55.4506,       626,
   55.4707,       591,
   55.4909,       634,
   55.5111,       582,
   55.5313,       615,
   55.5514,       601,
   55.5716,       663,
   55.5918,       624,
   55.6119,       641,
   55.6321,       585,
   55.6523,       645,
   55.6724,       586,
   55.6926,       577,
   55.7128,       613,
   55.7329,       623,
   55.7531,       605,
   55.7733,       629,
   55.7934,       658,
   55.8136,       590,
   55.8338,       575,
    55.854,       599,
   55.8741,       592,
   55.8943,       606,
   55.9145,       601,
   55.9346,       620,
   55.9548,       618,
    55.975,       593,
   55.9951,       622,
   56.0153,       628,
   56.0355,       628,
   56.0556,       622,
   56.0758,       554,
    56.096,       600,
   56.1161,       621,
   56.1363,       621,
   56.1565,       579,
   56.1766,       626,
   56.1968,       623,
    56.217,       608,
   56.2372,       624,
   56.2573,       623,
   56.2775,       568,
   56.2977,       609,
   56.3178,       585,
    56.338,       607,
   56.3582,       587,
   56.3783,       616,
   56.3985,       593,
   56.4187,       571,
   56.4388,       602,
    56.459,       590,
   56.4792,       628,
   56.4993,       585,
   56.5195,       632,
   56.5397,       630,
   56.5598,       590,
     56.58,       594,
   56.6002,       611,
   56.6204,       599,
   56.6405,       637,
   56.6607,       555,
   56.6809,       595,
    56.701,       651,
   56.7212,       603,
   56.7414,       585,
   56.7615,       611,
   56.7817,       591,
   56.8019,       630,
    56.822,       581,
   56.8422,       593,
   56.8624,       569,
   56.8825,       603,
   56.9027,       590,
   56.9229,       609,
   56.9431,       588,
   56.9632,       595,
   56.9834,       588,
   57.0036,       620,
   57.0237,       575,
   57.0439,       626,
   57.0641,       621,
   57.0842,       616,
   57.1044,       583,
   57.1246,       583,
   57.1447,       629,
   57.1649,       582,
   57.1851,       617,
   57.2052,       612,
   57.2254,       582,
   57.2456,       623,
   57.2657,       583,
   57.2859,       621,
   57.3061,       580,
   57.3263,       618,
   57.3464,       594,
   57.3666,       613,
   57.3868,       649,
   57.4069,       612,
   57.4271,       610,
   57.4473,       611,
   57.4674,       587,
   57.4876,       631,
   57.5078,       602,
   57.5279,       618,
   57.5481,       635,
   57.5683,       586,
   57.5884,       629,
   57.6086,       641,
   57.6288,       575,
   57.6489,       635,
   57.6691,       657,
   57.6893,       597,
   57.7095,       601,
   57.7296,       644,
   57.7498,       608,
     57.77,       588,
   57.7901,       588,
   57.8103,       633,
   57.8305,       590,
   57.8506,       624,
   57.8708,       620,
    57.891,       602,
   57.9111,       613,
   57.9313,       604,
   57.9515,       634,
   57.9716,       629,
   57.9918,       583,
    58.012,       601,
   58.0322,       648,
   58.0523,       604,
   58.0725,       619,
   58.0927,       566,
   58.1128,       618,
    58.133,       584,
   58.1532,       602,
   58.1733,       660,
   58.1935,       572,
   58.2137,       572,
   58.2338,       660,
    58.254,       615,
   58.2742,       614,
   58.2943,       601,
   58.3145,       597,
   58.3347,       602,
   58.3548,       580,
    58.375,       613,
   58.3952,       621,
   58.4154,       586,
   58.4355,       596,
   58.4557,       566,
   58.4759,       612,
    58.496,       616,
   58.5162,       621,
   58.5364,       590,
   58.5565,       606,
   58.5767,       573,
   58.5969,       573,
    58.617,       574,
   58.6372,       610,
   58.6574,       590,
   58.6775,       622,
   58.6977,       585,
   58.7179,       589,
    58.738,       607,
   58.7582,       549,
   58.7784,       590,
   58.7986,       616,
   58.8187,       542,
   58.8389,       621,
   58.8591,       587,
   58.8792,       633,
   58.8994,       598,
   58.9196,       600,
   58.9397,       652,
   58.9599,       648,
   58.9801,       589,
   59.0002,       639,
   59.0204,       567,
   59.0406,       629,
   59.0607,       611,
   59.0809,       612,
   59.1011,       573,
   59.1213,       630,
   59.1414,       569,
   59.1616,       580,
   59.1818,       591,
   59.2019,       593,
   59.2221,       625,
   59.2423,       577,
   59.2624,       577,
   59.2826,       621,
   59.3028,       621,
   59.3229,       620,
   59.3431,       613,
   59.3633,       654,
   59.3834,       625,
   59.4036,       614,
   59.4238,       644,
   59.4439,       634,
   59.4641,       636,
   59.4843,       630,
   59.5045,       583,
   59.5246,       566,
   59.5448,       618,
    59.565,       576,
   59.5851,       589,
   59.6053,       620,
   59.6255,       586,
   59.6456,       565,
   59.6658,       588,
    59.686,       607,
   59.7061,       590,
   59.7263,       601,
   59.7465,       584,
   59.7666,       569,
   59.7868,       608,
    59.807,       588,
   59.8271,       561,
   59.8473,       584,
   59.8675,       619,
   59.8877,       606,
   59.9078,       621,
    59.928,       619,
   59.9482,       611,
   59.9683,       565,
   59.9885,       598,
   60.0087,       576,
   60.0288,       588,
    60.049,       621,
   60.0692,       625,
   60.0893,       610,
   60.1095,       625,
   60.1297,       611,
   60.1498,       581,
     60.17,       646,
   60.1902,       596,
   60.2104,       583,
   60.2305,       601,
   60.2507,       631,
   60.2709,       621,
    60.291,       581,
   60.3112,       599,
   60.3314,       621,
   60.3515,       553,
   60.3717,       566,
   60.3919,       569,
    60.412,       600,
   60.4322,       573,
   60.4524,       596,
   60.4725,       566,
   60.4927,       587,
   60.5129,       592,
    60.533,       584,
   60.5532,       571,
   60.5734,       631,
   60.5936,       621,
   60.6137,       598,
   60.6339,       628,
   60.6541,       596,
   60.6742,       614,
   60.6944,       642,
   60.7146,       596,
   60.7347,       600,
   60.7549,       589,
   60.7751,       581,
   60.7952,       595,
   60.8154,       591,
   60.8356,       598,
   60.8557,       576,
   60.8759,       607,
   60.8961,       623,
   60.9163,       587,
   60.9364,       576,
   60.9566,       626,
   60.9768,       579,
   60.9969,       618,
   61.0171,       543,
   61.0373,       564,
   61.0574,       628,
   61.0776,       624,
   61.0978,       620,
   61.1179,       643,
   61.1381,       605,
   61.1583,       551,
   61.1784,       611,
   61.1986,       575,
   61.2188,       569,
   61.2389,       623,
   61.2591,       629,
   61.2793,       624,
   61.2995,       551,
   61.3196,       625,
   61.3398,       612,
     61.36,       578,
   61.3801,       570,
   61.4003,       606,
   61.4205,       574,
   61.4406,       561,
   61.4608,       606,
    61.481,       588,
   61.5011,       611,
   61.5213,       549,
   61.5415,       613,
   61.5616,       622,
   61.5818,       582,
    61.602,       607,
   61.6221,       596,
   61.6423,       589,
   61.6625,       627,
   61.6827,       606,
   61.7028,       594,
    61.723,       581,
   61.7432,       585,
   61.7633,       576,
   61.7835,       611,
   61.8037,       611,
   61.8238,       621,
    61.844,       555,
   61.8642,       581,
   61.8843,       574,
   61.9045,       571,
   61.9247,       592,
   61.9448,       606,
    61.965,       653,
   61.9852,       589,
   62.0054,       575,
   62.0255,       602,
   62.0457,       606,
   62.0659,       608,
    62.086,       630,
   62.1062,       616,
   62.1264,       631,
   62.1465,       563,
   62.1667,       571,
   62.1869,       614,
    62.207,       629,
   62.2272,       588,
   62.2474,       551,
   62.2675,       593,
   62.2877,       600,
   62.3079,       555,
    62.328,       596,
   62.3482,       612,
   62.3684,       581,
   62.3886,       560,
   62.4087,       578,
   62.4289,       588,
   62.4491,       611,
   62.4692,       575,
   62.4894,       604,
   62.5096,       573,
   62.5297,       558,
   62.5499,       605,
   62.5701,       584,
   62.5902,       580,
   62.6104,       570,
   62.6306,       586,
   62.6507,       575,
   62.6709,       607,
   62.6911,       582,
   62.7112,       656,
   62.7314,       600,
   62.7516,       556,
   62.7718,       584,
   62.7919,       594,
   62.8121,       584,
   62.8323,       544,
   62.8524,       589,
   62.8726,       609,
   62.8928,       583,
   62.9129,       653,
   62.9331,       591,
   62.9533,       598,
   62.9734,       617,
   62.9936,       599,
   63.0138,       608,
   63.0339,       628,
   63.0541,       577,
   63.0743,       579,
   63.0945,       576,
   63.1146,       600,
   63.1348,       620,
    63.155,       609,
   63.1751,       626,
   63.1953,       596,
   63.2155,       603,
   63.2356,       618,
   63.2558,       598,
    63.276,       580,
   63.2961,       574,
   63.3163,       566,
   63.3365,       537,
   63.3566,       621,
   63.3768,       574,
    63.397,       630,
   63.4171,       577,
   63.4373,       572,
   63.4575,       614,
   63.4777,       625,
   63.4978,       641,
    63.518,       548,
   63.5382,       591,
   63.5583,       578,
   63.5785,       583,
   63.5987,       563,
   63.6188,       556,
    63.639,       586,
   63.6592,       561,
   63.6793,       601,
   63.6995,       600,
   63.7197,       554,
   63.7398,       646,
     63.76,       542,
   63.7802,       575,
   63.8003,       629,
   63.8205,       618,
   63.8407,       600,
   63.8609,       583,
    63.881,       589,
   63.9012,       569,
   63.9214,       624,
   63.9415,       580,
   63.9617,       606,
   63.9819,       571,
    64.002,       587,
   64.0222,       611,
   64.0424,       613,
   64.0625,       561,
   64.0827,       595,
   64.1029,       613,
    64.123,       584,
   64.1432,       552,
   64.1634,       568,
   64.1836,       598,
   64.2037,       580,
   64.2239,       585,
   64.2441,       552,
   64.2642,       610,
   64.2844,       611,
   64.3046,       596,
   64.3247,       599,
   64.3449,       615,
   64.3651,       576,
   64.3852,       620,
   64.4054,       564,
   64.4256,       615,
   64.4457,       612,
   64.4659,       618,
   64.4861,       621,
   64.5062,       625,
   64.5264,       605,
   64.5466,       603,
   64.5668,       632,
   64.5869,       605,
   64.6071,       620,
   64.6273,       591,
   64.6474,       584,
   64.6676,       630,
   64.6878,       585,
   64.7079,       602,
   64.7281,       611,
   64.7483,       580,
   64.7684,       574,
   64.7886,       615,
   64.8088,       663,
   64.8289,       610,
   64.8491,       590,
   64.8693,       549,
   64.8894,       577,
   64.9096,       629,
   64.9298,       617,
     64.95,       598,
   64.9701,       594,
   64.9903,       591,
   65.0105,       575,
   65.0306,       592,
   65.0508,       634,
    65.071,       584,
   65.0911,       612,
   65.1113,       608,
   65.1315,       582,
   65.1516,       569,
   65.1718,       608,
    65.192,       609,
   65.2121,       573,
   65.2323,       617,
   65.2525,       568,
   65.2727,       591,
   65.2928,       558,
    65.313,       549,
   65.3332,       625,
   65.3533,       635,
   65.3735,       620,
   65.3937,       618,
   65.4138,       577,
    65.434,       600,
   65.4542,       612,
   65.4743,       592,
   65.4945,       582,
   65.5147,       573,
   65.5348,       610,
    65.555,       601,
   65.5752,       582,
   65.5953,       599,
   65.6155,       578,
   65.6357,       598,
   65.6559,       605,
    65.676,       598,
   65.6962,       640,
   65.7164,       549,
   65.7365,       566,
   65.7567,       560,
   65.7769,       594,
    65.797,       560,
   65.8172,       573,
   65.8374,       608,
   65.8575,       573,
   65.8777,       562,
   65.8979,       592,
    65.918,       600,
   65.9382,       635,
   65.9584,       590,
   65.9786,       564,
   65.9987,       612,
   66.0189,       576,
   66.0391,       587,
   66.0592,       636,
   66.0794,       603,
   66.0996,       588,
   66.1197,       561,
   66.1399,       611,
   66.1601,       591,
   66.1802,       614,
   66.2004,       616,
   66.2206,       607,
   66.2407,       568,
   66.2609,       601,
   66.2811,       594,
   66.3012,       613,
   66.3214,       579,
   66.3416,       586,
   66.3618,       552,
   66.3819,       577,
   66.4021,       579,
   66.4223,       629,
   66.4424,       596,
   66.4626,       577,
   66.4828,       606,
   66.5029,       602,
   66.5231,       608,
   66.5433,       596,
   66.5634,       557,
   66.5836,       587,
   66.6038,       599,
   66.6239,       647,
   66.6441,       617,
   66.6643,       598,
   66.6844,       595,
   66.7046,       634,
   66.7248,       612,
    66.745,       597,
   66.7651,       592,
   66.7853,       595,
   66.8055,       628,
   66.8256,       617,
   66.8458,       575,
    66.866,       644,
   66.8861,       614,
   66.9063,       593,
   66.9265,       583,
   66.9466,       559,
   66.9668,       576,
    66.987,       605,
   67.0071,       570,
   67.0273,       554,
   67.0475,       565,
   67.0677,       587,
   67.0878,       577,
    67.108,       635,
   67.1282,       603,
   67.1483,       588,
   67.1685,       614,
   67.1887,       577,
   67.2088,       567,
    67.229,       622,
   67.2492,       544,
   67.2693,       637,
   67.2895,       599,
   67.3097,       620,
   67.3298,       566,
     67.35,       582,
   67.3702,       614,
   67.3903,       576,
   67.4105,       561,
   67.4307,       570,
   67.4509,       583,
    67.471,       560,
   67.4912,       593,
   67.5114,       589,
   67.5315,       620,
   67.5517,       586,
   67.5719,       592,
    67.592,       605,
   67.6122,       539,
   67.6324,       584,
   67.6525,       605,
   67.6727,       642,
   67.6929,       591,
    67.713,       581,
   67.7332,       562,
   67.7534,       591,
   67.7735,       567,
   67.7937,       597,
   67.8139,       596,
   67.8341,       610,
   67.8542,       616,
   67.8744,       608,
   67.8946,       624,
   67.9147,       639,
   67.9349,       594,
   67.9551,       615,
   67.9752,       610,
   67.9954,       604,
   68.0156,       587,
   68.0357,       568,
   68.0559,       598,
   68.0761,       580,
   68.0962,       575,
   68.1164,       614,
   68.1366,       583,
   68.1568,       586,
   68.1769,       584,
   68.1971,       626,
   68.2173,       563,
   68.2374,       572,
   68.2576,       616,
   68.2778,       602,
   68.2979,       568,
   68.3181,       584,
   68.3383,       594,
   68.3584,       621,
   68.3786,       578,
   68.3988,       571,
   68.4189,       596,
   68.4391,       605,
   68.4593,       587,
   68.4794,       573,
   68.4996,       546,
   68.5198,       588,
     68.54,       626,
   68.5601,       547,
   68.5803,       620,
   68.6005,       584,
   68.6206,       616,
   68.6408,       640,
    68.661,       592,
   68.6811,       593,
   68.7013,       588,
   68.7215,       610,
   68.7416,       570,
   68.7618,       554,
    68.782,       582,
   68.8021,       566,
   68.8223,       557,
   68.8425,       631,
   68.8626,       588,
   68.8828,       652,
    68.903,       594,
   68.9232,       586,
   68.9433,       560,
   68.9635,       598,
   68.9837,       575,
   69.0038,       591,
    69.024,       583,
   69.0442,       574,
   69.0643,       592,
   69.0845,       571,
   69.1047,       621,
   69.1248,       585,
    69.145,       579,
   69.1652,       558,
   69.1853,       582,
   69.2055,       601,
   69.2257,       600,
   69.2459,       633,
    69.266,       595,
   69.2862,       597,
   69.3064,       580,
   69.3265,       616,
   69.3467,       567,
   69.3669,       569,
    69.387,       571,
   69.4072,       590,
   69.4274,       606,
   69.4475,       545,
   69.4677,       595,
   69.4879,       585,
    69.508,       602,
   69.5282,       608,
   69.5484,       584,
   69.5685,       606,
   69.5887,       626,
   69.6089,       581,
   69.6291,       568,
   69.6492,       628,
   69.6694,       590,
   69.6896,       604,
   69.7097,       601,
   69.7299,       625,
   69.7501,       554,
   69.7702,       580,
   69.7904,       599,
   69.8106,       600,
   69.8307,       616,
   69.8509,       580,
   69.8711,       611,
   69.8912,       588,
   69.9114,       600,
   69.9316,       612,
   69.9517,       574,
   69.9719,       558,
   69.9921,       601,
   70.0123,       615,
   70.0324,       577,
   70.0526,       572,
   70.0728,       612,
   70.0929,       586,
   70.1131,       601,
   70.1333,       622,
   70.1534,       598,
   70.1736,       618,
   70.1938,       585,
   70.2139,       586,
   70.2341,       618,
   70.2543,       591,
   70.2744,       633,
   70.2946,       603,
   70.3148,       574,
    70.335,       587,
   70.3551,       562,
   70.3753,       576,
   70.3955,       583,
   70.4156,       608,
   70.4358,       587,
    70.456,       580,
   70.4761,       560,
   70.4963,       571,
   70.5165,       625,
   70.5366,       603,
   70.5568,       606,
    70.577,       590,
   70.5971,       637,
   70.6173,       614,
   70.6375,       601,
   70.6576,       605,
   70.6778,       614,
    70.698,       550,
   70.7182,       594,
   70.7383,       587,
   70.7585,       639,
   70.7787,       562,
   70.7988,       600,
    70.819,       597,
   70.8392,       580,
   70.8593,       669,
   70.8795,       620,
   70.8997,       574,
   70.9198,       591,
     70.94,       583,
   70.9602,       589,
   70.9803,       557,
   71.0005,       554,
   71.0207,       580,
   71.0409,       582,
    71.061,       621,
   71.0812,       585,
   71.1014,       607,
   71.1215,       603,
   71.1417,       588,
   71.1619,       599,
    71.182,       607,
   71.2022,       582,
   71.2224,       608,
   71.2425,       565,
   71.2627,       610,
   71.2829,       598,
    71.303,       622,
   71.3232,       569,
   71.3434,       622,
   71.3635,       590,
   71.3837,       579,
   71.4039,       604,
   71.4241,       594,
   71.4442,       599,
   71.4644,       643,
   71.4846,       600,
   71.5047,       569,
   71.5249,       614,
   71.5451,       628,
   71.5652,       586,
   71.5854,       644,
   71.6056,       629,
   71.6257,       568,
   71.6459,       654,
   71.6661,       622,
   71.6862,       548,
   71.7064,       569,
   71.7266,       648,
   71.7467,       632,
   71.7669,       624,
   71.7871,       601,
   71.8073,       568,
   71.8274,       613,
   71.8476,       612,
   71.8678,       626,
   71.8879,       608,
   71.9081,       619,
   71.9283,       606,
   71.9484,       571,
   71.9686,       587,
   71.9888,       569,
   72.0089,       650,
   72.0291,       600,
   72.0493,       674,
   72.0694,       631,
   72.0896,       651,
   72.1098,       619,
     72.13,       613,
   72.1501,       572,
   72.1703,       627,
   72.1905,       641,
   72.2106,       625,
   72.2308,       589,
    72.251,       570,
   72.2711,       597,
   72.2913,       591,
   72.3115,       609,
   72.3316,       606,
   72.3518,       582,
    72.372,       617,
   72.3921,       620,
   72.4123,       617,
   72.4325,       600,
   72.4526,       614,
   72.4728,       578,
    72.493,       587,
   72.5132,       633,
   72.5333,       636,
   72.5535,       619,
   72.5737,       589,
   72.5938,       636,
    72.614,       574,
   72.6342,       622,
   72.6543,       611,
   72.6745,       610,
   72.6947,       622,
   72.7148,       610,
    72.735,       604,
   72.7552,       618,
   72.7753,       595,
   72.7955,       602,
   72.8157,       583,
   72.8358,       646,
    72.856,       638,
   72.8762,       641,
   72.8964,       597,
   72.9165,       579,
   72.9367,       648,
   72.9569,       608,
    72.977,       562,
   72.9972,       586,
   73.0174,       640,
   73.0375,       631,
   73.0577,       643,
   73.0779,       567,
    73.098,       614,
   73.1182,       587,
   73.1384,       600,
   73.1585,       647,
   73.1787,       588,
   73.1989,       641,
   73.2191,       652,
   73.2392,       606,
   73.2594,       604,
   73.2796,       644,
   73.2997,       607,
   73.3199,       584,
   73.3401,       651,
   73.3602,       613,
   73.3804,       666,
   73.4006,       599,
   73.4207,       624,
   73.4409,       646,
   73.4611,       650,
   73.4812,       615,
   73.5014,       662,
   73.5216,       607,
   73.5417,       675,
   73.5619,       628,
   73.5821,       616,
   73.6023,       656,
   73.6224,       641,
   73.6426,       678,
   73.6628,       619,
   73.6829,       615,
   73.7031,       602,
   73.7233,       659,
   73.7434,       645,
   73.7636,       653,
   73.7838,       645,
   73.8039,       689,
   73.8241,       687,
   73.8443,       763,
   73.8644,       772,
   73.8846,       771,
   73.9048,       767,
   73.9249,       832,
   73.9451,       812,
   73.9653,       815,
   73.9855,       843,
   74.0056,       860,
   74.0258,       815,
    74.046,       866,
   74.0661,       957,
   74.0863,       907,
   74.1065,       986,
   74.1266,      1053,
   74.1468,      1162,
    74.167,      1398,
   74.1871,      1812,
   74.2073,      2527,
   74.2275,      3670,
   74.2476,      6134,
   74.2678,      9201,
    74.288,     10620,
   74.3082,      9024,
   74.3283,      6232,
   74.3485,      3899,
   74.3687,      2652,
   74.3888,      2057,
    74.409,      1948,
   74.4292,      2234,
   74.4493,      2926,
   74.4695,      4134,
   74.4897,      5327,
   74.5098,      5721,
     74.53,      4506,
   74.5502,      3196,
   74.5703,      2119,
   74.5905,      1543,
   74.6107,      1189,
   74.6308,      1037,
    74.651,       977,
   74.6712,       918,
   74.6914,       792,
   74.7115,       822,
   74.7317,       791,
   74.7519,       788,
    74.772,       746,
   74.7922,       716,
   74.8124,       733,
   74.8325,       698,
   74.8527,       710,
   74.8729,       684,
    74.893,       720,
   74.9132,       671,
   74.9334,       638,
   74.9535,       638,
   74.9737,       629,
   74.9939,       659,
    75.014,       650,
   75.0342,       611,
   75.0544,       670,
   75.0746,       620,
   75.0947,       666,
   75.1149,       611,
   75.1351,       637,
   75.1552,       618,
   75.1754,       629,
   75.1956,       604,
   75.2157,       603,
   75.2359,       681,
   75.2561,       642,
   75.2762,       607,
   75.2964,       641,
   75.3166,       648,
   75.3367,       626,
   75.3569,       629,
   75.3771,       653,
   75.3973,       621,
   75.4174,       589,
   75.4376,       605,
   75.4578,       604,
   75.4779,       624,
   75.4981,       607,
   75.5183,       591,
   75.5384,       624,
   75.5586,       598,
   75.5788,       585,
   75.5989,       619,
   75.6191,       625,
   75.6393,       542,
   75.6594,       608,
   75.6796,       593,
   75.6998,       609,
   75.7199,       599,
   75.7401,       658,
   75.7603,       649,
   75.7805,       610,
   75.8006,       651,
   75.8208,       649,
    75.841,       626,
   75.8611,       598,
   75.8813,       619,
   75.9015,       619,
   75.9216,       578,
   75.9418,       612,
    75.962,       596,
   75.9821,       661,
   76.0023,       623,
   76.0225,       613,
   76.0426,       599,
   76.0628,       580,
    76.083,       595,
   76.1032,       600,
   76.1233,       643,
   76.1435,       585,
   76.1637,       625,
   76.1838,       600,
    76.204,       584,
   76.2242,       625,
   76.2443,       632,
   76.2645,       603,
   76.2847,       604,
   76.3048,       604,
    76.325,       600,
   76.3452,       557,
   76.3653,       595,
   76.3855,       661,
   76.4057,       588,
   76.4258,       630,
    76.446,       593,
   76.4662,       629,
   76.4864,       606,
   76.5065,       620,
   76.5267,       581,
   76.5469,       579,
    76.567,       608,
   76.5872,       577,
   76.6074,       651,
   76.6275,       555,
   76.6477,       592,
   76.6679,       596,
    76.688,       586,
   76.7082,       603,
   76.7284,       640,
   76.7485,       612,
   76.7687,       648,
   76.7889,       608,
    76.809,       574,
   76.8292,       621,
   76.8494,       616,
   76.8696,       589,
   76.8897,       600,
   76.9099,       582,
   76.9301,       591,
   76.9502,       564,
   76.9704,       599,
   76.9906,       611,
   77.0107,       544,
   77.0309,       609,
   77.0511,       577,
   77.0712,       615,
   77.0914,       617,
   77.1116,       619,
   77.1317,       553,
   77.1519,       620,
   77.1721,       616,
   77.1923,       578,
   77.2124,       627,
   77.2326,       617,
   77.2528,       664,
   77.2729,       568,
   77.2931,       594,
   77.3133,       534,
   77.3334,       597,
   77.3536,       553,
   77.3738,       630,
   77.3939,       550,
   77.4141,       575,
   77.4343,       595,
   77.4544,       631,
   77.4746,       576,
   77.4948,       615,
   77.5149,       619,
   77.5351,       628,
   77.5553,       585,
   77.5755,       623,
   77.5956,       607,
   77.6158,       589,
    77.636,       623,
   77.6561,       658,
   77.6763,       597,
   77.6965,       634,
   77.7166,       613,
   77.7368,       598,
    77.757,       565,
   77.7771,       598,
   77.7973,       569,
   77.8175,       560,
   77.8376,       587,
   77.8578,       634,
    77.878,       605,
   77.8981,       615,
   77.9183,       605,
   77.9385,       623,
   77.9587,       572,
   77.9788,       630,
    77.999,       594,
