;RAW4.00
[RawHeader]
Date=11/26/2025
EstimatedTotalTime=426.6
FurtherDQLReading=0
HardwareIndicator=65519
MeasuredTotalTime=4.29401
MeasurementFlag=1
NumberOfMeasuredRanges=1
NumberOfRanges=1
Time=17:59:59

[VarInfo]
Type=USER
Flags=0
Value=Lab Manager

[VarInfo]
Type=SAMPLEID
Flags=0
Value=Commander Sample ID

[VarInfo]
Type=COMMENT
Flags=0
Value=

[VarInfo]
Type=UTF
Flags=0
Value=

[VarInfo]
Type=CREATOR
Flags=0
Value=V5Converter

[VarInfo]
Type=CREATOR_VERSION
Flags=0
Value=4.4.16.0

[HardwareConfiguration]
AbsorptionFactor=9999
ActivateAbsorber=0
Alpha1=1.5406
Alpha2=1.54439
AlphaAverage=1.54184
AlphaRatio=0.5
Analyzer=0
Anode=Cu
AntiScatteringSlit=9999
BeamOpticsFlags=0
Beta=1.39222
BetaRelativeIntensity=0
DeactivateAbsorber=0
DetectorSlit=9999
DivergenceSlit=9999
GoniometerControl=0
GoniometerDiameter=282
GoniometerModel=256
GoniometerStage=7
Monochromator=0
NearSampleSlit=9999
PrimarySollerSlit=9999
SampleChanger=0
SecondSollerSlit=9999
SynchronousAxis=0
ThinFilmAttachment=9999
WaveUnit=A

[RangeHeader]
ActuallyUsedLambda=1.54184
AdditionalDetectorMask=257
DataRecordLength=4
DelayTime=0
DisplayPlaneNumber=0
EstimatedScanTime=427
ExtraParametersMask=0
GeneratorCurrent=10
GeneratorVoltage=30
Increment=0.0201685
Increment3=0
NumberOfCompletedData=1885
NumberOfCounts=1
NumberOfDetectors=0
NumberOfDrives=3
NumberOfEncoderDrives=0
NumberOfMeasuredData=1885
NumberOfVaryingParameters=0
RangeStartTime=0
RotationSpeed=0
ScanMode=1
ScanType=Locked Coupled
SimulatedMeasConditions=0
SlitChangerIn=0
SmootingWidth=0
Start=40.0015
Steps=1885
SynchronousRotation=0
Time=33

[VarInfo]
Type=PSD_DISCRIM
Flags=0
Value=0.11;0.5

[VarInfo]
Type=OPTICS_V5
Flags=0
Value=H4sIAAAAAAAEAO1d63KjOhJ+Fda/zqmtBIPtXKaITzm2J+OaOHbFTnKmtrZcBORYZzC4AOey//d99hl2X2x1QViIS8C3JBN+TCaodWm6+2vUUkfS/nieW9IjcD3o2GcV5bBakYBtOCa0H84qS396oBxV/mhqF44NnTnwgdt25gvHBrbf0X1dQq1t78uzB88qM99ffJHlp6enw6faoeM+yGq1qsh/9i9HxgzM9QNoe75uG6AStjJfb1WRbqEH7y1wpc/BWWXFR0joAM9w4cInL/Bj4UHLsSW+3oXrLBc9NBZ6t3Pgojcb3P8FDH+o+7OzitwBj9AAMt+CrxUfl1Lblu55QRehTORzoM8XqLDt2L4ObeBy/coBc6yHluEvdYtxoR6o1ePT02O5h8TkLue4tzhrTW2EZGjqqBswQr3oFvyXjl+9OdUtD2hyGln7c259hcAyrwHqHhq4EDFpA/KbJ8lNjfKD1ToCFipvdm00JDA1OUbR6Btwou9Ab2HpL824AjQ5tXK8m+bF4OrHhPzodEft64TGrBVWDOsoPhpP1bBWhrxWvISy1r0hIUP+4r8skMLHrm78xG8sGODQhXPdfSHkZBMMakgD9GxISBvSeHkPOIFIQeOidilHx44baRI9r5mSRmyEDSxUYBJZ3blu/xy4JnCvAfYzAL0wsdX3b8s5NVnMwIfj6+8T9KPV/l7IxHm5Jhp5z0OvBh9BE+kGCS98DAk920dCZMIVSikeHA9SJulgmhwp1bAq2ZMXfZT4B2LSAxc+QFu3ogSlwl6OWi7Ssb/0moPwnSLFGmsYPPedJdIj0qJQrgWE0MJ5JCOdEXICmjFtjmnJUA7J0tRxpRHQLUBtYA3AytxYcejGiMm4JZa46kmmLG0LrhEWBa3xcus++8A2MZDfDYZpCWdMkQKtj5nwHfcltGVFk+OFGseMJxH2qHoYWND7cnJosmJN5ku1uCnh1+H65qyTKx3Y545jAR1NEG5s6BPpdiDSG56bXcI59IlYwiKvWdVk7knrgKm+tPxb3VoCboigVyQ96CPXTshnFewlKri/oQta5l9LD8GnYEuZYx67mbHTJoqe6ZblPK0cjVCOarZnwPgJzFUVVqC1ESPOHKsWvx33pNH5Zl7erhEyxkg2xVq1lr7TdoHug6HrLIDrvzAWEyiR9/eIRfdMhLKr5fweuE21rslCEdaQRS08UPF//xMyUSUc9B0TNG8Quqbos4xMnTwz90Y+PzEHluy7tuWt5HgP/ND5vNXOHBXjLvaN2aNbYuh5A79Evm3IJvErCL6JJ23LP418rD3OPSHRTOHDEjnla/gw85sIdabECnU0BoKwUKWYS+vrz5fAfvBnTbXRwKJhj2nOjrJISkNktZevObqMVm/q5DL4SnFwGS02cm5pFninPwKqkpa1mOmKYIUieVuWOJh2nCVqyWzxf//ehzWm2Nxw9uJBQ7dIeQJnTA/KYaNePXrNFtfo7ca2MPfItOjcf/WMZelYS+paugfVBtErK9H60Ibz5bx5oBwenx4fndaUWv3kSK0pjePu32vVE4S4oAZGIvklvWZQ4W0Rs4b0UpC0Rk/7QJiajTD10yOsXjvdJsRYdyXGNhLfFkDGuto1yh6Bqz+IoV6M/ulxppzUt4kz1l2Js43EtwWcsa52jLNz4OupIMPET46w2qmqqttD2Kq7EmEbiW9jhK262jHCrvGaRirECHVXGHuvCFutth02NsJWrKMSVWsKbh08xTrZCZK+OsbSG7gQ2D5ZHRSgJJK3tspG1g4H057tH9XfH6CibEVXr/OjKbkXhfRCBYDfqOeDOWLs0nmABl3VvJn0rm5bl73OpP2tN9TkFYkJfAye/WbPftQtiMQzg4uVjCJaIvW07+CFjI1lEf6uyTEWsnm67F2lsnIJbSARW0kbWtlk6OEgY+yhA20/e3B1k8GZLoaD0auqCHeKD6S58wgk35HmwJjpNrYKCTmTxd/SeKxl8/ienF2WXefzdFk9bOTm6N5Lz546UqiqhAVciZbr3FOQY3BWIVUkVBrdJr+ZtC6H31rRcrGRhEeyyEjkXXKxo0bYURPZUVPYUbPYUQuzEywL8PxEyoQBQloib5PW7UUWe0HrokySmCrg8D78PeybkkWGzrvjVjIvuH4+FiIbUQEDqBXeyxN46LJSkY3uZbffvRqnSMV2TCAFbaXVSDlkQmfBvNq4EkHsASVZZdetcW+QpTTSOp+8YlOLgL9pYnk4ToQicvl10J4MrpMZJONJkeZyfMe6Ed+xvgA2skTfcYU8TFacvPmcsQFLZ8dr7r82tXQiP3O7dSw/voYXlO4q5vl5u6WEjcypLxqFfRNqVSHyCL4FKaFHctihVBMCjFp1f7FErbF+MBEXRsEvZLo55TW19tJ1sT+LmlpQuitTm7f2YWpolHD6sQ1TaySFsh/E0uKy2LulDZ0nkgHOmxQp25WV3aUEnW+xcHMnRJr5lluqhymm+EkWW+4491hde7Ul3ssWbV9+7YtfJA0UTQyNGXBfyVbbPA8ud74bklUw60j9YgWfilQ/I4dzraYmBmuZ2QhiKJW9qxqLdLI3h6IxR/YytzAXT1vD42MIIXVJnC4nR8cylyaJ7OZRhxZeJcCPHu2eWH2ZQFkmUJYJlGUCZZlA+fE2xcsEyvezJV4mUP6aCCsTKN8TxsoEyl8VZ2UC5XvCWZlA+ashrEygfE8IKxMoywTKMoGyTKAsEyjLBMoygbJMoCwTKMsEyjKBskygLBMoywTKMoGyTKAsEyjLBMoygbJMoHzr+KNMoCwTKD9tAiXLkUS/iumT7KzT+Cmg4tm7GScqd+cL/4UkG4arGcVOT+72h4PRhP4scnoyGTg0xcTzk2U+BzLzcGMl7XBjde+HGw8WbefceR5MR45lATfhiGNKyDjkmKsg/WbotmTQQ8ElNJZEifQE7N/XgX9k+LhXSSBnuYaE6hunwkb7FPSZfOxxRGTIPPKL8PePe2KymphYK0bAR+scevtxXAin6Q2diJrmRGpv50S+wmdgEkNlcw/RmVjQz3IliCz1U2CAaRv4kdXICV5EJGb6ELHy5h6E61FQZYr/YA2o98gntQ/sOmq5XMfxeudlE7OmVzSsTJpYMhZe0hcRy1SR/jGf/zPDjH/DR/7fA2QfErQ9hAVgol98R9I5hWWaMq5mhBds4KeJUp0oaQYcIb5mwIVtN52ZmPP5qH/5US30lx930PRnYm4HLtvZktP8/WxBxzgL44DNsuvjPeVdZqh+7nWGuODWWWeI97KTtI5vABumgB1a+LnBszXslNBZz+i3gpzt3wSirjOzGenzhQXuZgBYY/QC/KUgIkkjH65UJ0ChmfamMj+F+lCxGJtFbxiJ1dIisfpGkRjhMR6HvT9h3thLD5hkeHHgLInKwm1g17oJl16CldWVYB+fXrg3mE494KdZfesZevz3Iay2B1ceYybnbh1ywVU1LSlVPTypn6qNRkNN8LvHjcOTRv24dqQqvK8VhNAM7mETbitc+w7DEUCRgJl9i2FYh7v9roNCXwNnMmzhLkORh4SYKLFGsfsMwz42ifVFRj70nYaF9FrM/4zwzYaj4jcbRuW787sNw+F2cbvhyRss3uHlOks3wMyxzMQtgMsX+xm8pBxzcfnj6s/ujy654bCjSsOZ7olX4OYEsRyOEwezQMpa3mDWKOO8X3k4Wj2jProvYAvX6KYzLmrzl7v28CTPUlxNiU9Yi8wL0ecUu0XdWrmWfniNJk2pxn6HJHazGl4xZ9PpjyfkXwFHw4ba6R6gstmscZebgP09bgIKCIswkLYN2N/zNmAmj6JSs3YC+59rJ1Cp53Ii1c+wFVhGSkUjpbRAqXF4dHrSUJRqPWmBqqEcHldP68dqfQeB0sontAHGieA9hcKI4+SmzLSadMAw70kjnLfkkW8dVkPLMIDnOS4E3hoRE+Mi7j2jlLwRUvyl1/ekrIcPHRqtqcpiLudicNWekB9FHA7lZ+eh0Ri4qHQnkdHp3mdFwxkkShPAfO0EGXBRYgTUqKlErdE1Wb0CGJXZGHSdNqGDKCsJ1TJnP6vqMuJUZpxuDuAUxgVFpsREEgUYMFu+rxszPNBZ5WDPRwluc5pzmitr4SQ+y+l5TBQhKMMCjfMcZLfIWj48ALPjYkzSv8ZE3eHvWs9sIu2S3oNHTCEVRwtgwGnwt6KsUpyC4BLvvcgEK46DYs5u+K03mpAfRZxdFKHbnGBVi0yvQisOP5lEYfRDEPwf22IqXU7pckqXI7qcECvsd+8VLsZPznhGTjB6jZVIzZz8ZA+dc9yig6ZEJvFifFQxXo8YAd9H0PIkfi6GHAXNPKxILbzB7vVR6AbplI5NtLGOuVT/5i2e1Rn4EFu+VFtBkewhB6uqmiyUa3yqI/WAkWUTj/6JxSqYYK6D6Pv/u9RXv2COAAA=

[PSD]
ActualTwoTheta=9999
FirstUsedChannel=0
FixedPSD=0
PSDOpening=4.99171
PSDType=5

[Drive]
DriveFlags=1
DriveName=2Theta
DriveNumber=2
DriveOffset=0
OffsetIndex=0
OscillationAmplitude=0
OscillationSpeed=0
StartPosition=40.0015

[Drive]
DriveFlags=1
DriveName=Theta
DriveNumber=1
DriveOffset=0
OffsetIndex=0
OscillationAmplitude=0
OscillationSpeed=0
StartPosition=20.0007

[Drive]
DriveFlags=1
DriveName=Phi
DriveNumber=3
DriveOffset=0
OffsetIndex=0
OscillationAmplitude=0
OscillationSpeed=0
StartPosition=0

[Data]
     Angle,       PSD,
   40.0015,       684,
   40.0217,       638,
   40.0418,       631,
    40.062,       620,
   40.0822,       587,
   40.1023,       633,
   40.1225,       619,
   40.1427,       630,
   40.1628,       639,
    40.183,       552,
   40.2032,       638,
   40.2233,       605,
   40.2435,       606,
   40.2637,       632,
   40.2838,       598,
    40.304,       621,
   40.3242,       622,
   40.3444,       592,
   40.3645,       615,
   40.3847,       632,
   40.4049,       606,
    40.425,       623,
   40.4452,       599,
   40.4654,       585,
   40.4855,       582,
   40.5057,       632,
   40.5259,       620,
    40.546,       646,
   40.5662,       617,
   40.5864,       624,
   40.6065,       607,
   40.6267,       643,
   40.6469,       650,
   40.6671,       570,
   40.6872,       625,
   40.7074,       617,
   40.7276,       621,
   40.7477,       613,
   40.7679,       592,
   40.7881,       614,
   40.8082,       598,
   40.8284,       599,
   40.8486,       573,
   40.8687,       595,
   40.8889,       574,
   40.9091,       582,
   40.9292,       618,
   40.9494,       572,
   40.9696,       622,
   40.9897,       582,
   41.0099,       617,
   41.0301,       651,
   41.0503,       590,
   41.0704,       599,
   41.0906,       651,
   41.1108,       625,
   41.1309,       630,
   41.1511,       643,
   41.1713,       593,
   41.1914,       618,
   41.2116,       565,
   41.2318,       648,
   41.2519,       594,
   41.2721,       601,
   41.2923,       550,
   41.3124,       612,
   41.3326,       622,
   41.3528,       612,
   41.3729,       625,
   41.3931,       629,
   41.4133,       636,
   41.4335,       627,
   41.4536,       611,
   41.4738,       658,
    41.494,       646,
   41.5141,       611,
   41.5343,       649,
   41.5545,       593,
   41.5746,       633,
   41.5948,       622,
    41.615,       639,
   41.6351,       619,
   41.6553,       627,
   41.6755,       640,
   41.6956,       595,
   41.7158,       635,
    41.736,       596,
   41.7562,       620,
   41.7763,       584,
   41.7965,       629,
   41.8167,       635,
   41.8368,       597,
    41.857,       671,
   41.8772,       589,
   41.8973,       625,
   41.9175,       629,
   41.9377,       675,
   41.9578,       699,
    41.978,       663,
   41.9982,       742,
   42.0183,       738,
   42.0385,       701,
   42.0587,       695,
   42.0788,       738,
    42.099,       748,
   42.1192,       738,
   42.1394,       688,
   42.1595,       724,
   42.1797,       731,
   42.1999,       723,
     42.22,       721,
   42.2402,       758,
   42.2604,       735,
   42.2805,       733,
   42.3007,       745,
   42.3209,       736,
    42.341,       720,
   42.3612,       702,
   42.3814,       749,
   42.4015,       713,
   42.4217,       756,
   42.4419,       755,
    42.462,       667,
   42.4822,       691,
   42.5024,       770,
   42.5226,       741,
   42.5427,       746,
   42.5629,       753,
   42.5831,       752,
   42.6032,       702,
   42.6234,       702,
   42.6436,       763,
   42.6637,       777,
   42.6839,       770,
   42.7041,       743,
   42.7242,       715,
   42.7444,       750,
   42.7646,       748,
   42.7847,       775,
   42.8049,       762,
   42.8251,       763,
   42.8453,       742,
   42.8654,       789,
   42.8856,       764,
   42.9058,       802,
   42.9259,       781,
   42.9461,       798,
   42.9663,       814,
   42.9864,       848,
   43.0066,       849,
   43.0268,       833,
   43.0469,       916,
   43.0671,       941,
   43.0873,       974,
   43.1074,       953,
   43.1276,      1015,
   43.1478,      1136,
   43.1679,      1187,
   43.1881,      1187,
   43.2083,      1185,
   43.2285,      1340,
   43.2486,      1384,
   43.2688,      1505,
    43.289,      1668,
   43.3091,      1844,
   43.3293,      1932,
   43.3495,      2129,
   43.3696,      2233,
   43.3898,      2567,
     43.41,      3408,
   43.4301,      5415,
   43.4503,     10365,
   43.4705,     23554,
   43.4906,     43503,
   43.5108,     51173,
    43.531,     36129,
   43.5511,     18787,
   43.5713,     13735,
   43.5915,     18419,
   43.6117,     26196,
   43.6318,     24890,
    43.652,     14987,
   43.6722,      7155,
   43.6923,      3919,
   43.7125,      2680,
   43.7327,      2238,
   43.7528,      1939,
    43.773,      1783,
   43.7932,      1697,
   43.8133,      1551,
   43.8335,      1315,
   43.8537,      1274,
   43.8738,      1181,
    43.894,      1122,
   43.9142,      1158,
   43.9344,      1052,
   43.9545,       964,
   43.9747,       969,
   43.9949,       875,
    44.015,       855,
   44.0352,       873,
   44.0554,       839,
   44.0755,       833,
   44.0957,       816,
   44.1159,       772,
    44.136,       825,
   44.1562,       848,
   44.1764,       759,
   44.1965,       776,
   44.2167,       748,
   44.2369,       760,
    44.257,       763,
   44.2772,       755,
   44.2974,       751,
   44.3176,       749,
   44.3377,       845,
   44.3579,       765,
   44.3781,       774,
   44.3982,       734,
   44.4184,       758,
   44.4386,       703,
   44.4587,       757,
   44.4789,       769,
   44.4991,       684,
   44.5192,       717,
   44.5394,       755,
   44.5596,       720,
   44.5797,       731,
   44.5999,       713,
   44.6201,       711,
   44.6402,       656,
   44.6604,       735,
   44.6806,       699,
   44.7008,       712,
   44.7209,       700,
   44.7411,       696,
   44.7613,       763,
   44.7814,       656,
   44.8016,       645,
   44.8218,       667,
   44.8419,       675,
   44.8621,       704,
   44.8823,       717,
   44.9024,       711,
   44.9226,       719,
   44.9428,       699,
   44.9629,       719,
   44.9831,       657,
   45.0033,       676,
   45.0235,       672,
   45.0436,       715,
   45.0638,       712,
    45.084,       656,
   45.1041,       741,
   45.1243,       715,
   45.1445,       673,
   45.1646,       715,
   45.1848,       672,
    45.205,       709,
   45.2251,       680,
   45.2453,       657,
   45.2655,       663,
   45.2856,       666,
   45.3058,       688,
    45.326,       683,
   45.3461,       722,
   45.3663,       609,
   45.3865,       727,
   45.4067,       704,
   45.4268,       725,
    45.447,       695,
   45.4672,       753,
   45.4873,       769,
   45.5075,       710,
   45.5277,       648,
   45.5478,       654,
    45.568,       671,
   45.5882,       694,
   45.6083,       738,
   45.6285,       651,
   45.6487,       657,
   45.6688,       622,
    45.689,       672,
   45.7092,       719,
   45.7294,       698,
   45.7495,       636,
   45.7697,       656,
   45.7899,       641,
     45.81,       677,
   45.8302,       667,
   45.8504,       691,
   45.8705,       634,
   45.8907,       680,
   45.9109,       630,
    45.931,       666,
   45.9512,       684,
   45.9714,       627,
   45.9915,       690,
   46.0117,       642,
   46.0319,       694,
    46.052,       652,
   46.0722,       717,
   46.0924,       723,
   46.1126,       670,
   46.1327,       684,
   46.1529,       671,
   46.1731,       674,
   46.1932,       632,
   46.2134,       687,
   46.2336,       699,
   46.2537,       668,
   46.2739,       680,
   46.2941,       664,
   46.3142,       666,
   46.3344,       647,
   46.3546,       672,
   46.3747,       660,
   46.3949,       649,
   46.4151,       677,
   46.4352,       632,
   46.4554,       684,
   46.4756,       658,
   46.4958,       658,
   46.5159,       599,
   46.5361,       638,
   46.5563,       648,
   46.5764,       636,
   46.5966,       659,
   46.6168,       659,
   46.6369,       678,
   46.6571,       611,
   46.6773,       637,
   46.6974,       696,
   46.7176,       643,
   46.7378,       703,
   46.7579,       645,
   46.7781,       657,
   46.7983,       703,
   46.8185,       660,
   46.8386,       613,
   46.8588,       653,
    46.879,       665,
   46.8991,       678,
   46.9193,       669,
   46.9395,       690,
   46.9596,       633,
   46.9798,       689,
        47,       631,
   47.0201,       677,
   47.0403,       688,
   47.0605,       671,
   47.0806,       663,
   47.1008,       613,
    47.121,       637,
   47.1411,       662,
   47.1613,       613,
   47.1815,       677,
   47.2017,       620,
   47.2218,       688,
    47.242,       630,
   47.2622,       655,
   47.2823,       669,
   47.3025,       659,
   47.3227,       652,
   47.3428,       634,
    47.363,       661,
   47.3832,       621,
   47.4033,       636,
   47.4235,       668,
   47.4437,       699,
   47.4638,       682,
    47.484,       633,
   47.5042,       667,
   47.5243,       694,
   47.5445,       666,
   47.5647,       656,
   47.5849,       676,
    47.605,       668,
   47.6252,       684,
   47.6454,       664,
   47.6655,       672,
   47.6857,       647,
   47.7059,       631,
    47.726,       674,
   47.7462,       612,
   47.7664,       668,
   47.7865,       671,
   47.8067,       651,
   47.8269,       639,
    47.847,       653,
   47.8672,       682,
   47.8874,       671,
   47.9076,       646,
   47.9277,       658,
   47.9479,       627,
   47.9681,       657,
   47.9882,       631,
   48.0084,       624,
   48.0286,       648,
   48.0487,       648,
   48.0689,       639,
   48.0891,       620,
   48.1092,       658,
   48.1294,       647,
   48.1496,       581,
   48.1697,       629,
   48.1899,       649,
   48.2101,       633,
   48.2302,       628,
   48.2504,       668,
   48.2706,       645,
   48.2908,       652,
   48.3109,       602,
   48.3311,       649,
   48.3513,       632,
   48.3714,       614,
   48.3916,       674,
   48.4118,       639,
   48.4319,       662,
   48.4521,       700,
   48.4723,       593,
   48.4924,       692,
   48.5126,       676,
   48.5328,       664,
   48.5529,       649,
   48.5731,       649,
   48.5933,       618,
   48.6134,       631,
   48.6336,       631,
   48.6538,       673,
    48.674,       641,
   48.6941,       636,
   48.7143,       629,
   48.7345,       662,
   48.7546,       634,
   48.7748,       710,
    48.795,       630,
   48.8151,       678,
   48.8353,       711,
   48.8555,       605,
   48.8756,       680,
   48.8958,       653,
    48.916,       645,
   48.9361,       656,
   48.9563,       641,
   48.9765,       681,
   48.9967,       665,
   49.0168,       623,
    49.037,       641,
   49.0572,       662,
   49.0773,       691,
   49.0975,       643,
   49.1177,       667,
   49.1378,       667,
    49.158,       656,
   49.1782,       613,
   49.1983,       646,
   49.2185,       738,
   49.2387,       626,
   49.2588,       641,
    49.279,       648,
   49.2992,       628,
   49.3193,       638,
   49.3395,       629,
   49.3597,       673,
   49.3799,       697,
      49.4,       677,
   49.4202,       654,
   49.4404,       684,
   49.4605,       686,
   49.4807,       660,
   49.5009,       687,
    49.521,       662,
   49.5412,       702,
   49.5614,       711,
   49.5815,       679,
   49.6017,       682,
   49.6219,       683,
    49.642,       633,
   49.6622,       636,
   49.6824,       656,
   49.7025,       677,
   49.7227,       653,
   49.7429,       678,
   49.7631,       690,
   49.7832,       683,
   49.8034,       675,
   49.8236,       716,
   49.8437,       691,
   49.8639,       635,
   49.8841,       674,
   49.9042,       666,
   49.9244,       700,
   49.9446,       705,
   49.9647,       649,
   49.9849,       678,
   50.0051,       730,
   50.0252,       676,
   50.0454,       711,
   50.0656,       680,
   50.0858,       703,
   50.1059,       723,
   50.1261,       758,
   50.1463,       736,
   50.1664,       719,
   50.1866,       761,
   50.2068,       725,
   50.2269,       769,
   50.2471,       798,
   50.2673,       790,
   50.2874,       841,
   50.3076,       837,
   50.3278,       856,
   50.3479,       923,
   50.3681,       930,
   50.3883,       979,
   50.4084,       996,
   50.4286,      1040,
   50.4488,      1157,
    50.469,      1221,
   50.4891,      1303,
   50.5093,      1514,
   50.5295,      1851,
   50.5496,      2571,
   50.5698,      3919,
     50.59,      6145,
   50.6101,      9850,
   50.6303,     12297,
   50.6505,     11131,
   50.6706,      7985,
   50.6908,      5398,
    50.711,      4614,
   50.7311,      5005,
   50.7513,      6267,
   50.7715,      6767,
   50.7917,      5543,
   50.8118,      3792,
    50.832,      2543,
   50.8522,      1812,
   50.8723,      1466,
   50.8925,      1191,
   50.9127,      1129,
   50.9328,      1046,
    50.953,       956,
   50.9732,       950,
   50.9933,       898,
   51.0135,       846,
   51.0337,       815,
   51.0538,       794,
    51.074,       737,
   51.0942,       742,
   51.1143,       746,
   51.1345,       725,
   51.1547,       735,
   51.1749,       682,
    51.195,       713,
   51.2152,       732,
   51.2354,       682,
   51.2555,       665,
   51.2757,       670,
   51.2959,       720,
    51.316,       706,
   51.3362,       698,
   51.3564,       667,
   51.3765,       683,
   51.3967,       713,
   51.4169,       672,
    51.437,       704,
   51.4572,       629,
   51.4774,       659,
   51.4975,       682,
   51.5177,       643,
   51.5379,       641,
   51.5581,       628,
   51.5782,       631,
   51.5984,       645,
   51.6186,       676,
   51.6387,       694,
   51.6589,       655,
   51.6791,       668,
   51.6992,       660,
   51.7194,       685,
   51.7396,       641,
   51.7597,       665,
   51.7799,       690,
   51.8001,       642,
   51.8202,       651,
   51.8404,       687,
   51.8606,       647,
   51.8808,       671,
   51.9009,       679,
   51.9211,       663,
   51.9413,       612,
   51.9614,       636,
   51.9816,       660,
   52.0018,       664,
   52.0219,       639,
   52.0421,       601,
   52.0623,       657,
   52.0824,       612,
   52.1026,       606,
   52.1228,       611,
   52.1429,       681,
   52.1631,       612,
   52.1833,       612,
   52.2034,       657,
   52.2236,       639,
   52.2438,       625,
    52.264,       653,
   52.2841,       620,
   52.3043,       678,
   52.3245,       616,
   52.3446,       690,
   52.3648,       647,
    52.385,       647,
   52.4051,       632,
   52.4253,       629,
   52.4455,       589,
   52.4656,       659,
   52.4858,       635,
    52.506,       634,
   52.5261,       630,
   52.5463,       641,
   52.5665,       662,
   52.5866,       608,
   52.6068,       605,
    52.627,       653,
   52.6472,       606,
   52.6673,       629,
   52.6875,       656,
   52.7077,       627,
   52.7278,       648,
    52.748,       614,
   52.7682,       667,
   52.7883,       668,
   52.8085,       651,
   52.8287,       620,
   52.8488,       653,
    52.869,       647,
   52.8892,       634,
   52.9093,       665,
   52.9295,       617,
   52.9497,       602,
   52.9699,       671,
     52.99,       609,
   53.0102,       608,
   53.0304,       623,
   53.0505,       638,
   53.0707,       639,
   53.0909,       622,
    53.111,       609,
   53.1312,       619,
   53.1514,       617,
   53.1715,       617,
   53.1917,       646,
   53.2119,       621,
    53.232,       662,
   53.2522,       624,
   53.2724,       521,
   53.2925,       662,
   53.3127,       612,
   53.3329,       653,
   53.3531,       602,
   53.3732,       572,
   53.3934,       642,
   53.4136,       608,
   53.4337,       620,
   53.4539,       593,
   53.4741,       626,
   53.4942,       600,
   53.5144,       666,
   53.5346,       622,
   53.5547,       660,
   53.5749,       617,
   53.5951,       612,
   53.6152,       614,
   53.6354,       597,
   53.6556,       635,
   53.6757,       619,
   53.6959,       578,
   53.7161,       643,
   53.7363,       630,
   53.7564,       644,
   53.7766,       634,
   53.7968,       625,
   53.8169,       627,
   53.8371,       637,
   53.8573,       646,
   53.8774,       678,
   53.8976,       629,
   53.9178,       632,
   53.9379,       656,
   53.9581,       634,
   53.9783,       615,
   53.9984,       628,
   54.0186,       601,
   54.0388,       622,
    54.059,       600,
   54.0791,       640,
   54.0993,       616,
   54.1195,       627,
   54.1396,       653,
   54.1598,       616,
     54.18,       608,
   54.2001,       618,
   54.2203,       598,
   54.2405,       630,
   54.2606,       625,
   54.2808,       645,
    54.301,       610,
   54.3211,       675,
   54.3413,       666,
   54.3615,       607,
   54.3816,       620,
   54.4018,       608,
    54.422,       676,
   54.4422,       662,
   54.4623,       658,
   54.4825,       606,
   54.5027,       646,
   54.5228,       606,
    54.543,       592,
   54.5632,       611,
   54.5833,       650,
   54.6035,       604,
   54.6237,       604,
   54.6438,       606,
    54.664,       644,
   54.6842,       653,
   54.7043,       610,
   54.7245,       581,
   54.7447,       617,
   54.7648,       629,
    54.785,       637,
   54.8052,       560,
   54.8254,       603,
   54.8455,       613,
   54.8657,       626,
   54.8859,       611,
    54.906,       642,
   54.9262,       611,
   54.9464,       609,
   54.9665,       585,
   54.9867,       576,
   55.0069,       632,
    55.027,       615,
   55.0472,       580,
   55.0674,       670,
   55.0875,       617,
   55.1077,       627,
   55.1279,       596,
   55.1481,       647,
   55.1682,       599,
   55.1884,       582,
   55.2086,       591,
   55.2287,       608,
   55.2489,       614,
   55.2691,       600,
   55.2892,       599,
   55.3094,       619,
   55.3296,       611,
   55.3497,       634,
   55.3699,       559,
   55.3901,       596,
   55.4102,       648,
   55.4304,       654,
   55.4506,       629,
   55.4707,       628,
   55.4909,       616,
   55.5111,       618,
   55.5313,       637,
   55.5514,       638,
   55.5716,       655,
   55.5918,       607,
   55.6119,       654,
   55.6321,       594,
   55.6523,       561,
   55.6724,       572,
   55.6926,       615,
   55.7128,       595,
   55.7329,       582,
   55.7531,       605,
   55.7733,       626,
   55.7934,       619,
   55.8136,       628,
   55.8338,       628,
    55.854,       611,
   55.8741,       629,
   55.8943,       567,
   55.9145,       610,
   55.9346,       646,
   55.9548,       645,
    55.975,       560,
   55.9951,       611,
   56.0153,       609,
   56.0355,       628,
   56.0556,       601,
   56.0758,       633,
    56.096,       598,
   56.1161,       602,
   56.1363,       585,
   56.1565,       561,
   56.1766,       602,
   56.1968,       625,
    56.217,       654,
   56.2372,       595,
   56.2573,       611,
   56.2775,       642,
   56.2977,       626,
   56.3178,       600,
    56.338,       627,
   56.3582,       631,
   56.3783,       618,
   56.3985,       613,
   56.4187,       630,
   56.4388,       634,
    56.459,       620,
   56.4792,       581,
   56.4993,       652,
   56.5195,       586,
   56.5397,       599,
   56.5598,       589,
     56.58,       643,
   56.6002,       628,
   56.6204,       622,
   56.6405,       636,
   56.6607,       613,
   56.6809,       588,
    56.701,       614,
   56.7212,       617,
   56.7414,       591,
   56.7615,       602,
   56.7817,       600,
   56.8019,       585,
    56.822,       561,
   56.8422,       628,
   56.8624,       546,
   56.8825,       589,
   56.9027,       608,
   56.9229,       593,
   56.9431,       615,
   56.9632,       665,
   56.9834,       579,
   57.0036,       581,
   57.0237,       559,
   57.0439,       628,
   57.0641,       570,
   57.0842,       597,
   57.1044,       590,
   57.1246,       660,
   57.1447,       638,
   57.1649,       592,
   57.1851,       611,
   57.2052,       564,
   57.2254,       598,
   57.2456,       569,
   57.2657,       615,
   57.2859,       620,
   57.3061,       602,
   57.3263,       643,
   57.3464,       601,
   57.3666,       622,
   57.3868,       587,
   57.4069,       576,
   57.4271,       599,
   57.4473,       590,
   57.4674,       624,
   57.4876,       627,
   57.5078,       582,
   57.5279,       560,
   57.5481,       626,
   57.5683,       649,
   57.5884,       611,
   57.6086,       599,
   57.6288,       617,
   57.6489,       620,
   57.6691,       604,
   57.6893,       615,
   57.7095,       596,
   57.7296,       633,
   57.7498,       634,
     57.77,       560,
   57.7901,       587,
   57.8103,       540,
   57.8305,       611,
   57.8506,       598,
   57.8708,       579,
    57.891,       639,
   57.9111,       621,
   57.9313,       592,
   57.9515,       592,
   57.9716,       603,
   57.9918,       620,
    58.012,       607,
   58.0322,       608,
   58.0523,       549,
   58.0725,       599,
   58.0927,       604,
   58.1128,       608,
    58.133,       585,
   58.1532,       577,
   58.1733,       574,
   58.1935,       585,
   58.2137,       593,
   58.2338,       593,
    58.254,       581,
   58.2742,       592,
   58.2943,       581,
   58.3145,       605,
   58.3347,       583,
   58.3548,       637,
    58.375,       640,
   58.3952,       653,
   58.4154,       596,
   58.4355,       593,
   58.4557,       606,
   58.4759,       571,
    58.496,       570,
   58.5162,       590,
   58.5364,       629,
   58.5565,       617,
   58.5767,       601,
   58.5969,       628,
    58.617,       607,
   58.6372,       630,
   58.6574,       603,
   58.6775,       559,
   58.6977,       582,
   58.7179,       544,
    58.738,       563,
   58.7582,       538,
   58.7784,       600,
   58.7986,       632,
   58.8187,       584,
   58.8389,       651,
   58.8591,       639,
   58.8792,       587,
   58.8994,       617,
   58.9196,       643,
   58.9397,       582,
   58.9599,       640,
   58.9801,       572,
   59.0002,       596,
   59.0204,       581,
   59.0406,       615,
   59.0607,       598,
   59.0809,       576,
   59.1011,       611,
   59.1213,       572,
   59.1414,       612,
   59.1616,       571,
   59.1818,       631,
   59.2019,       581,
   59.2221,       654,
   59.2423,       586,
   59.2624,       644,
   59.2826,       611,
   59.3028,       572,
   59.3229,       563,
   59.3431,       620,
   59.3633,       553,
   59.3834,       559,
   59.4036,       568,
   59.4238,       609,
   59.4439,       600,
   59.4641,       583,
   59.4843,       636,
   59.5045,       595,
   59.5246,       601,
   59.5448,       586,
    59.565,       586,
   59.5851,       565,
   59.6053,       554,
   59.6255,       602,
   59.6456,       640,
   59.6658,       591,
    59.686,       596,
   59.7061,       614,
   59.7263,       599,
   59.7465,       622,
   59.7666,       568,
   59.7868,       628,
    59.807,       565,
   59.8271,       612,
   59.8473,       557,
   59.8675,       574,
   59.8877,       637,
   59.9078,       594,
    59.928,       562,
   59.9482,       578,
   59.9683,       617,
   59.9885,       625,
   60.0087,       587,
   60.0288,       583,
    60.049,       571,
   60.0692,       602,
   60.0893,       622,
   60.1095,       585,
   60.1297,       621,
   60.1498,       576,
     60.17,       582,
   60.1902,       567,
   60.2104,       592,
   60.2305,       594,
   60.2507,       641,
   60.2709,       570,
    60.291,       620,
   60.3112,       606,
   60.3314,       629,
   60.3515,       595,
   60.3717,       620,
   60.3919,       610,
    60.412,       587,
   60.4322,       617,
   60.4524,       577,
   60.4725,       594,
   60.4927,       566,
   60.5129,       629,
    60.533,       604,
   60.5532,       609,
   60.5734,       588,
   60.5936,       600,
   60.6137,       588,
   60.6339,       569,
   60.6541,       577,
   60.6742,       598,
   60.6944,       584,
   60.7146,       632,
   60.7347,       594,
   60.7549,       580,
   60.7751,       574,
   60.7952,       535,
   60.8154,       611,
   60.8356,       551,
   60.8557,       598,
   60.8759,       603,
   60.8961,       624,
   60.9163,       615,
   60.9364,       578,
   60.9566,       592,
   60.9768,       623,
   60.9969,       601,
   61.0171,       570,
   61.0373,       589,
   61.0574,       632,
   61.0776,       596,
   61.0978,       598,
   61.1179,       615,
   61.1381,       608,
   61.1583,       596,
   61.1784,       602,
   61.1986,       586,
   61.2188,       602,
   61.2389,       561,
   61.2591,       596,
   61.2793,       577,
   61.2995,       540,
   61.3196,       594,
   61.3398,       573,
     61.36,       608,
   61.3801,       580,
   61.4003,       544,
   61.4205,       616,
   61.4406,       600,
   61.4608,       593,
    61.481,       628,
   61.5011,       581,
   61.5213,       610,
   61.5415,       620,
   61.5616,       619,
   61.5818,       590,
    61.602,       619,
   61.6221,       592,
   61.6423,       590,
   61.6625,       597,
   61.6827,       595,
   61.7028,       593,
    61.723,       567,
   61.7432,       568,
   61.7633,       589,
   61.7835,       579,
   61.8037,       608,
   61.8238,       605,
    61.844,       611,
   61.8642,       568,
   61.8843,       607,
   61.9045,       580,
   61.9247,       553,
   61.9448,       580,
    61.965,       581,
   61.9852,       563,
   62.0054,       548,
   62.0255,       561,
   62.0457,       640,
   62.0659,       594,
    62.086,       569,
   62.1062,       567,
   62.1264,       572,
   62.1465,       632,
   62.1667,       555,
   62.1869,       613,
    62.207,       582,
   62.2272,       589,
   62.2474,       614,
   62.2675,       552,
   62.2877,       622,
   62.3079,       565,
    62.328,       578,
   62.3482,       584,
   62.3684,       591,
   62.3886,       564,
   62.4087,       572,
   62.4289,       635,
   62.4491,       592,
   62.4692,       622,
   62.4894,       565,
   62.5096,       595,
   62.5297,       569,
   62.5499,       597,
   62.5701,       647,
   62.5902,       588,
   62.6104,       608,
   62.6306,       574,
   62.6507,       609,
   62.6709,       579,
   62.6911,       575,
   62.7112,       597,
   62.7314,       598,
   62.7516,       571,
   62.7718,       543,
   62.7919,       575,
   62.8121,       598,
   62.8323,       582,
   62.8524,       578,
   62.8726,       588,
   62.8928,       620,
   62.9129,       524,
   62.9331,       610,
   62.9533,       606,
   62.9734,       595,
   62.9936,       611,
   63.0138,       575,
   63.0339,       600,
   63.0541,       608,
   63.0743,       599,
   63.0945,       617,
   63.1146,       654,
   63.1348,       555,
    63.155,       608,
   63.1751,       591,
   63.1953,       633,
   63.2155,       552,
   63.2356,       609,
   63.2558,       608,
    63.276,       617,
   63.2961,       573,
   63.3163,       590,
   63.3365,       544,
   63.3566,       603,
   63.3768,       594,
    63.397,       556,
   63.4171,       588,
   63.4373,       608,
   63.4575,       580,
   63.4777,       555,
   63.4978,       600,
    63.518,       579,
   63.5382,       591,
   63.5583,       606,
   63.5785,       594,
   63.5987,       587,
   63.6188,       548,
    63.639,       605,
   63.6592,       597,
   63.6793,       597,
   63.6995,       595,
   63.7197,       590,
   63.7398,       575,
     63.76,       568,
   63.7802,       592,
   63.8003,       630,
   63.8205,       669,
   63.8407,       555,
   63.8609,       602,
    63.881,       565,
   63.9012,       575,
   63.9214,       588,
   63.9415,       600,
   63.9617,       603,
   63.9819,       585,
    64.002,       571,
   64.0222,       610,
   64.0424,       564,
   64.0625,       563,
   64.0827,       561,
   64.1029,       593,
    64.123,       599,
   64.1432,       600,
   64.1634,       606,
   64.1836,       599,
   64.2037,       576,
   64.2239,       574,
   64.2441,       577,
   64.2642,       604,
   64.2844,       563,
   64.3046,       633,
   64.3247,       621,
   64.3449,       627,
   64.3651,       577,
   64.3852,       589,
   64.4054,       609,
   64.4256,       571,
   64.4457,       570,
   64.4659,       581,
   64.4861,       562,
   64.5062,       569,
   64.5264,       610,
   64.5466,       604,
   64.5668,       569,
   64.5869,       598,
   64.6071,       609,
   64.6273,       579,
   64.6474,       592,
   64.6676,       614,
   64.6878,       585,
   64.7079,       600,
   64.7281,       551,
   64.7483,       568,
   64.7684,       557,
   64.7886,       577,
   64.8088,       574,
   64.8289,       603,
   64.8491,       592,
   64.8693,       561,
   64.8894,       594,
   64.9096,       591,
   64.9298,       608,
     64.95,       586,
   64.9701,       590,
   64.9903,       591,
   65.0105,       570,
   65.0306,       607,
   65.0508,       607,
    65.071,       547,
   65.0911,       578,
   65.1113,       613,
   65.1315,       608,
   65.1516,       589,
   65.1718,       596,
    65.192,       597,
   65.2121,       590,
   65.2323,       622,
   65.2525,       576,
   65.2727,       642,
   65.2928,       604,
    65.313,       575,
   65.3332,       567,
   65.3533,       558,
   65.3735,       595,
   65.3937,       581,
   65.4138,       545,
    65.434,       604,
   65.4542,       610,
   65.4743,       579,
   65.4945,       558,
   65.5147,       557,
   65.5348,       585,
    65.555,       607,
   65.5752,       602,
   65.5953,       538,
   65.6155,       548,
   65.6357,       567,
   65.6559,       625,
    65.676,       585,
   65.6962,       612,
   65.7164,       647,
   65.7365,       597,
   65.7567,       647,
   65.7769,       627,
    65.797,       574,
   65.8172,       587,
   65.8374,       597,
   65.8575,       620,
   65.8777,       574,
   65.8979,       568,
    65.918,       594,
   65.9382,       552,
   65.9584,       614,
   65.9786,       595,
   65.9987,       570,
   66.0189,       589,
   66.0391,       544,
   66.0592,       614,
   66.0794,       588,
   66.0996,       581,
   66.1197,       596,
   66.1399,       609,
   66.1601,       602,
   66.1802,       634,
   66.2004,       591,
   66.2206,       616,
   66.2407,       574,
   66.2609,       622,
   66.2811,       601,
   66.3012,       603,
   66.3214,       593,
   66.3416,       619,
   66.3618,       582,
   66.3819,       610,
   66.4021,       582,
   66.4223,       630,
   66.4424,       600,
   66.4626,       560,
   66.4828,       583,
   66.5029,       617,
   66.5231,       626,
   66.5433,       591,
   66.5634,       595,
   66.5836,       576,
   66.6038,       619,
   66.6239,       594,
   66.6441,       575,
   66.6643,       609,
   66.6844,       605,
   66.7046,       606,
   66.7248,       619,
    66.745,       602,
   66.7651,       591,
   66.7853,       615,
   66.8055,       565,
   66.8256,       570,
   66.8458,       577,
    66.866,       606,
   66.8861,       547,
   66.9063,       634,
   66.9265,       590,
   66.9466,       558,
   66.9668,       580,
    66.987,       576,
   67.0071,       576,
   67.0273,       605,
   67.0475,       623,
   67.0677,       577,
   67.0878,       619,
    67.108,       572,
   67.1282,       563,
   67.1483,       586,
   67.1685,       589,
   67.1887,       564,
   67.2088,       586,
    67.229,       570,
   67.2492,       615,
   67.2693,       595,
   67.2895,       580,
   67.3097,       604,
   67.3298,       545,
     67.35,       587,
   67.3702,       606,
   67.3903,       593,
   67.4105,       570,
   67.4307,       626,
   67.4509,       543,
    67.471,       588,
   67.4912,       574,
   67.5114,       557,
   67.5315,       557,
   67.5517,       588,
   67.5719,       588,
    67.592,       574,
   67.6122,       589,
   67.6324,       632,
   67.6525,       603,
   67.6727,       540,
   67.6929,       601,
    67.713,       606,
   67.7332,       585,
   67.7534,       593,
   67.7735,       605,
   67.7937,       563,
   67.8139,       589,
   67.8341,       596,
   67.8542,       588,
   67.8744,       613,
   67.8946,       574,
   67.9147,       600,
   67.9349,       535,
   67.9551,       527,
   67.9752,       594,
   67.9954,       548,
   68.0156,       512,
   68.0357,       611,
   68.0559,       564,
   68.0761,       565,
   68.0962,       552,
   68.1164,       582,
   68.1366,       572,
   68.1568,       607,
   68.1769,       571,
   68.1971,       572,
   68.2173,       573,
   68.2374,       592,
   68.2576,       595,
   68.2778,       614,
   68.2979,       561,
   68.3181,       586,
   68.3383,       584,
   68.3584,       605,
   68.3786,       607,
   68.3988,       595,
   68.4189,       600,
   68.4391,       591,
   68.4593,       562,
   68.4794,       609,
   68.4996,       593,
   68.5198,       582,
     68.54,       601,
   68.5601,       608,
   68.5803,       579,
   68.6005,       579,
   68.6206,       589,
   68.6408,       610,
    68.661,       612,
   68.6811,       573,
   68.7013,       611,
   68.7215,       580,
   68.7416,       560,
   68.7618,       600,
    68.782,       573,
   68.8021,       572,
   68.8223,       609,
   68.8425,       620,
   68.8626,       636,
   68.8828,       591,
    68.903,       549,
   68.9232,       576,
   68.9433,       631,
   68.9635,       556,
   68.9837,       586,
   69.0038,       538,
    69.024,       590,
   69.0442,       553,
   69.0643,       616,
   69.0845,       579,
   69.1047,       553,
   69.1248,       598,
    69.145,       613,
   69.1652,       583,
   69.1853,       590,
   69.2055,       567,
   69.2257,       561,
   69.2459,       592,
    69.266,       557,
   69.2862,       580,
   69.3064,       589,
   69.3265,       597,
   69.3467,       612,
   69.3669,       600,
    69.387,       588,
   69.4072,       562,
   69.4274,       589,
   69.4475,       562,
   69.4677,       585,
   69.4879,       569,
    69.508,       572,
   69.5282,       549,
   69.5484,       603,
   69.5685,       592,
   69.5887,       576,
   69.6089,       584,
   69.6291,       598,
   69.6492,       623,
   69.6694,       594,
   69.6896,       566,
   69.7097,       615,
   69.7299,       572,
   69.7501,       581,
   69.7702,       639,
   69.7904,       590,
   69.8106,       608,
   69.8307,       594,
   69.8509,       586,
   69.8711,       583,
   69.8912,       584,
   69.9114,       591,
   69.9316,       600,
   69.9517,       609,
   69.9719,       593,
   69.9921,       553,
   70.0123,       635,
   70.0324,       573,
   70.0526,       567,
   70.0728,       584,
   70.0929,       589,
   70.1131,       607,
   70.1333,       610,
   70.1534,       587,
   70.1736,       587,
   70.1938,       590,
   70.2139,       584,
   70.2341,       569,
   70.2543,       584,
   70.2744,       574,
   70.2946,       631,
   70.3148,       576,
    70.335,       570,
   70.3551,       581,
   70.3753,       609,
   70.3955,       610,
   70.4156,       583,
   70.4358,       598,
    70.456,       651,
   70.4761,       603,
   70.4963,       588,
   70.5165,       576,
   70.5366,       631,
   70.5568,       546,
    70.577,       581,
   70.5971,       598,
   70.6173,       579,
   70.6375,       603,
   70.6576,       608,
   70.6778,       587,
    70.698,       626,
   70.7182,       617,
   70.7383,       585,
   70.7585,       635,
   70.7787,       584,
   70.7988,       598,
    70.819,       590,
   70.8392,       594,
   70.8593,       606,
   70.8795,       600,
   70.8997,       560,
   70.9198,       632,
     70.94,       607,
   70.9602,       565,
   70.9803,       569,
   71.0005,       606,
   71.0207,       595,
   71.0409,       600,
    71.061,       587,
   71.0812,       577,
   71.1014,       589,
   71.1215,       601,
   71.1417,       585,
   71.1619,       595,
    71.182,       560,
   71.2022,       582,
   71.2224,       591,
   71.2425,       581,
   71.2627,       585,
   71.2829,       595,
    71.303,       607,
   71.3232,       563,
   71.3434,       621,
   71.3635,       606,
   71.3837,       628,
   71.4039,       615,
   71.4241,       598,
   71.4442,       621,
   71.4644,       586,
   71.4846,       617,
   71.5047,       586,
   71.5249,       596,
   71.5451,       623,
   71.5652,       612,
   71.5854,       558,
   71.6056,       593,
   71.6257,       601,
   71.6459,       610,
   71.6661,       605,
   71.6862,       621,
   71.7064,       609,
   71.7266,       631,
   71.7467,       585,
   71.7669,       636,
   71.7871,       646,
   71.8073,       612,
   71.8274,       608,
   71.8476,       590,
   71.8678,       582,
   71.8879,       609,
   71.9081,       609,
   71.9283,       641,
   71.9484,       608,
   71.9686,       634,
   71.9888,       597,
   72.0089,       622,
   72.0291,       604,
   72.0493,       645,
   72.0694,       595,
   72.0896,       623,
   72.1098,       611,
     72.13,       582,
   72.1501,       581,
   72.1703,       589,
   72.1905,       623,
   72.2106,       588,
   72.2308,       657,
    72.251,       617,
   72.2711,       587,
   72.2913,       643,
   72.3115,       600,
   72.3316,       601,
   72.3518,       596,
    72.372,       590,
   72.3921,       589,
   72.4123,       594,
   72.4325,       631,
   72.4526,       584,
   72.4728,       601,
    72.493,       611,
   72.5132,       570,
   72.5333,       590,
   72.5535,       623,
   72.5737,       629,
   72.5938,       574,
    72.614,       622,
   72.6342,       595,
   72.6543,       618,
   72.6745,       622,
   72.6947,       620,
   72.7148,       594,
    72.735,       588,
   72.7552,       550,
   72.7753,       615,
   72.7955,       565,
   72.8157,       626,
   72.8358,       614,
    72.856,       623,
   72.8762,       604,
   72.8964,       601,
   72.9165,       623,
   72.9367,       636,
   72.9569,       600,
    72.977,       582,
   72.9972,       602,
   73.0174,       580,
   73.0375,       625,
   73.0577,       589,
   73.0779,       641,
    73.098,       619,
   73.1182,       607,
   73.1384,       612,
   73.1585,       587,
   73.1787,       599,
   73.1989,       630,
   73.2191,       648,
   73.2392,       604,
   73.2594,       628,
   73.2796,       604,
   73.2997,       621,
   73.3199,       636,
   73.3401,       645,
   73.3602,       630,
   73.3804,       593,
   73.4006,       637,
   73.4207,       646,
   73.4409,       625,
   73.4611,       639,
   73.4812,       595,
   73.5014,       629,
   73.5216,       641,
   73.5417,       626,
   73.5619,       642,
   73.5821,       654,
   73.6023,       640,
   73.6224,       623,
   73.6426,       647,
   73.6628,       643,
   73.6829,       657,
   73.7031,       689,
   73.7233,       574,
   73.7434,       638,
   73.7636,       688,
   73.7838,       648,
   73.8039,       631,
   73.8241,       750,
   73.8443,       690,
   73.8644,       718,
   73.8846,       777,
   73.9048,       765,
   73.9249,       796,
   73.9451,       808,
   73.9653,       886,
   73.9855,       795,
   74.0056,       826,
   74.0258,       840,
    74.046,       838,
   74.0661,       857,
   74.0863,       898,
   74.1065,       957,
   74.1266,      1027,
   74.1468,      1184,
    74.167,      1444,
   74.1871,      1769,
   74.2073,      2448,
   74.2275,      3702,
   74.2476,      5896,
   74.2678,      8975,
    74.288,     10763,
   74.3082,      9450,
   74.3283,      6447,
   74.3485,      4040,
   74.3687,      2601,
   74.3888,      2082,
    74.409,      1922,
   74.4292,      2181,
   74.4493,      2904,
   74.4695,      4160,
   74.4897,      5285,
   74.5098,      5692,
     74.53,      4693,
   74.5502,      3152,
   74.5703,      2117,
   74.5905,      1581,
   74.6107,      1246,
   74.6308,      1049,
    74.651,       945,
   74.6712,       849,
   74.6914,       806,
   74.7115,       807,
   74.7317,       756,
   74.7519,       761,
    74.772,       744,
   74.7922,       724,
   74.8124,       714,
   74.8325,       705,
   74.8527,       703,
   74.8729,       674,
    74.893,       720,
   74.9132,       665,
   74.9334,       622,
   74.9535,       683,
   74.9737,       648,
   74.9939,       622,
    75.014,       611,
   75.0342,       618,
   75.0544,       654,
   75.0746,       652,
   75.0947,       679,
   75.1149,       628,
   75.1351,       631,
   75.1552,       592,
   75.1754,       613,
   75.1956,       614,
   75.2157,       622,
   75.2359,       594,
   75.2561,       649,
   75.2762,       607,
   75.2964,       654,
   75.3166,       620,
   75.3367,       642,
   75.3569,       632,
   75.3771,       616,
   75.3973,       597,
   75.4174,       662,
   75.4376,       629,
   75.4578,       596,
   75.4779,       646,
   75.4981,       654,
   75.5183,       613,
   75.5384,       602,
   75.5586,       604,
   75.5788,       646,
   75.5989,       633,
   75.6191,       593,
   75.6393,       611,
   75.6594,       614,
   75.6796,       577,
   75.6998,       614,
   75.7199,       653,
   75.7401,       599,
   75.7603,       588,
   75.7805,       632,
   75.8006,       639,
   75.8208,       597,
    75.841,       576,
   75.8611,       593,
   75.8813,       624,
   75.9015,       624,
   75.9216,       590,
   75.9418,       648,
    75.962,       586,
   75.9821,       587,
   76.0023,       575,
   76.0225,       621,
   76.0426,       598,
   76.0628,       623,
    76.083,       612,
   76.1032,       579,
   76.1233,       609,
   76.1435,       635,
   76.1637,       609,
   76.1838,       638,
    76.204,       556,
   76.2242,       590,
   76.2443,       579,
   76.2645,       612,
   76.2847,       575,
   76.3048,       658,
    76.325,       572,
   76.3452,       675,
   76.3653,       613,
   76.3855,       592,
   76.4057,       631,
   76.4258,       566,
    76.446,       560,
   76.4662,       592,
   76.4864,       608,
   76.5065,       609,
   76.5267,       586,
   76.5469,       596,
    76.567,       564,
   76.5872,       611,
   76.6074,       595,
   76.6275,       593,
   76.6477,       585,
   76.6679,       605,
    76.688,       620,
   76.7082,       557,
   76.7284,       604,
   76.7485,       620,
   76.7687,       621,
   76.7889,       620,
    76.809,       596,
   76.8292,       575,
   76.8494,       608,
   76.8696,       629,
   76.8897,       565,
   76.9099,       577,
   76.9301,       601,
   76.9502,       603,
   76.9704,       618,
   76.9906,       558,
   77.0107,       625,
   77.0309,       622,
   77.0511,       589,
   77.0712,       599,
   77.0914,       580,
   77.1116,       617,
   77.1317,       617,
   77.1519,       574,
   77.1721,       610,
   77.1923,       583,
   77.2124,       617,
   77.2326,       615,
   77.2528,       615,
   77.2729,       569,
   77.2931,       564,
   77.3133,       591,
   77.3334,       587,
   77.3536,       621,
   77.3738,       593,
   77.3939,       628,
   77.4141,       589,
   77.4343,       597,
   77.4544,       616,
   77.4746,       580,
   77.4948,       570,
   77.5149,       590,
   77.5351,       554,
   77.5553,       616,
   77.5755,       620,
   77.5956,       615,
   77.6158,       590,
    77.636,       607,
   77.6561,       622,
   77.6763,       608,
   77.6965,       578,
   77.7166,       596,
   77.7368,       545,
    77.757,       618,
   77.7771,       586,
   77.7973,       604,
   77.8175,       605,
   77.8376,       591,
   77.8578,       581,
    77.878,       642,
   77.8981,       578,
   77.9183,       593,
   77.9385,       642,
   77.9587,       595,
   77.9788,       642,
    77.999,       602,
