;RAW4.00
[RawHeader]
Date=11/26/2025
EstimatedTotalTime=426.6
FurtherDQLReading=0
HardwareIndicator=65519
MeasuredTotalTime=4.29503
MeasurementFlag=1
NumberOfMeasuredRanges=1
NumberOfRanges=1
Time=14:59:50

[VarInfo]
Type=USER
Flags=0
Value=Lab Manager

[VarInfo]
Type=SAMPLEID
Flags=0
Value=Commander Sample ID

[VarInfo]
Type=COMMENT
Flags=0
Value=

[VarInfo]
Type=UTF
Flags=0
Value=

[VarInfo]
Type=CREATOR
Flags=0
Value=V5Converter

[VarInfo]
Type=CREATOR_VERSION
Flags=0
Value=4.4.16.0

[HardwareConfiguration]
AbsorptionFactor=9999
ActivateAbsorber=0
Alpha1=1.5406
Alpha2=1.54439
AlphaAverage=1.54184
AlphaRatio=0.5
Analyzer=0
Anode=Cu
AntiScatteringSlit=9999
BeamOpticsFlags=0
Beta=1.39222
BetaRelativeIntensity=0
DeactivateAbsorber=0
DetectorSlit=9999
DivergenceSlit=9999
GoniometerControl=0
GoniometerDiameter=282
GoniometerModel=256
GoniometerStage=7
Monochromator=0
NearSampleSlit=9999
PrimarySollerSlit=9999
SampleChanger=0
SecondSollerSlit=9999
SynchronousAxis=0
ThinFilmAttachment=9999
WaveUnit=A

[RangeHeader]
ActuallyUsedLambda=1.54184
AdditionalDetectorMask=257
DataRecordLength=4
DelayTime=0
DisplayPlaneNumber=0
EstimatedScanTime=427
ExtraParametersMask=0
GeneratorCurrent=10
GeneratorVoltage=30
Increment=0.0201685
Increment3=0
NumberOfCompletedData=1885
NumberOfCounts=1
NumberOfDetectors=0
NumberOfDrives=3
NumberOfEncoderDrives=0
NumberOfMeasuredData=1885
NumberOfVaryingParameters=0
RangeStartTime=0
RotationSpeed=0
ScanMode=1
ScanType=Locked Coupled
SimulatedMeasConditions=0
SlitChangerIn=0
SmootingWidth=0
Start=40.0015
Steps=1885
SynchronousRotation=0
Time=33

[VarInfo]
Type=PSD_DISCRIM
Flags=0
Value=0.11;0.5

[VarInfo]
Type=OPTICS_V5
Flags=0
Value=H4sIAAAAAAAEAO1d63KjOhJ+Fda/zqmtBIPtXKaITzm2J+OaOHbFTnKmtrZcBORYZzC4AOey//d99hl2X2x1QViIS8C3JBN+TCaodWm6+2vUUkfS/nieW9IjcD3o2GcV5bBakYBtOCa0H84qS396oBxV/mhqF44NnTnwgdt25gvHBrbf0X1dQq1t78uzB88qM99ffJHlp6enw6faoeM+yGq1qsh/9i9HxgzM9QNoe75uG6AStjJfb1WRbqEH7y1wpc/BWWXFR0joAM9w4cInL/Bj4UHLsSW+3oXrLBc9NBZ6t3Pgojcb3P8FDH+o+7OzitwBj9AAMt+CrxUfl1Lblu55QRehTORzoM8XqLDt2L4ObeBy/coBc6yHluEvdYtxoR6o1ePT02O5h8TkLue4tzhrTW2EZGjqqBswQr3oFvyXjl+9OdUtD2hyGln7c259hcAyrwHqHhq4EDFpA/KbJ8lNjfKD1ToCFipvdm00JDA1OUbR6Btwou9Ab2HpL824AjQ5tXK8m+bF4OrHhPzodEft64TGrBVWDOsoPhpP1bBWhrxWvISy1r0hIUP+4r8skMLHrm78xG8sGODQhXPdfSHkZBMMakgD9GxISBvSeHkPOIFIQeOidilHx44baRI9r5mSRmyEDSxUYBJZ3blu/xy4JnCvAfYzAL0wsdX3b8s5NVnMwIfj6+8T9KPV/l7IxHm5Jhp5z0OvBh9BE+kGCS98DAk920dCZMIVSikeHA9SJulgmhwp1bAq2ZMXfZT4B2LSAxc+QFu3ogSlwl6OWi7Ssb/0moPwnSLFGmsYPPedJdIj0qJQrgWE0MJ5JCOdEXICmjFtjmnJUA7J0tRxpRHQLUBtYA3AytxYcejGiMm4JZa46kmmLG0LrhEWBa3xcus++8A2MZDfDYZpCWdMkQKtj5nwHfcltGVFk+OFGseMJxH2qHoYWND7cnJosmJN5ku1uCnh1+H65qyTKx3Y545jAR1NEG5s6BPpdiDSG56bXcI59IlYwiKvWdVk7knrgKm+tPxb3VoCboigVyQ96CPXTshnFewlKri/oQta5l9LD8GnYEuZYx67mbHTJoqe6ZblPK0cjVCOarZnwPgJzFUVVqC1ESPOHKsWvx33pNH5Zl7erhEyxkg2xVq1lr7TdoHug6HrLIDrvzAWEyiR9/eIRfdMhLKr5fweuE21rslCEdaQRS08UPF//xMyUSUc9B0TNG8Quqbos4xMnTwz90Y+PzEHluy7tuWt5HgP/ND5vNXOHBXjLvaN2aNbYuh5A79Evm3IJvErCL6JJ23LP418rD3OPSHRTOHDEjnla/gw85sIdabECnU0BoKwUKWYS+vrz5fAfvBnTbXRwKJhj2nOjrJISkNktZevObqMVm/q5DL4SnFwGS02cm5pFninPwKqkpa1mOmKYIUieVuWOJh2nCVqyWzxf//ehzWm2Nxw9uJBQ7dIeQJnTA/KYaNePXrNFtfo7ca2MPfItOjcf/WMZelYS+paugfVBtErK9H60Ibz5bx5oBwenx4fndaUWv3kSK0pjePu32vVE4S4oAZGIvklvWZQ4W0Rs4b0UpC0Rk/7QJiajTD10yOsXjvdJsRYdyXGNhLfFkDGuto1yh6Bqz+IoV6M/ulxppzUt4kz1l2Js43EtwWcsa52jLNz4OupIMPET46w2qmqqttD2Kq7EmEbiW9jhK262jHCrvGaRirECHVXGHuvCFutth02NsJWrKMSVWsKbh08xTrZCZK+OsbSG7gQ2D5ZHRSgJJK3tspG1g4H057tH9XfH6CibEVXr/OjKbkXhfRCBYDfqOeDOWLs0nmABl3VvJn0rm5bl73OpP2tN9TkFYkJfAye/WbPftQtiMQzg4uVjCJaIvW07+CFjI1lEf6uyTEWsnm67F2lsnIJbSARW0kbWtlk6OEgY+yhA20/e3B1k8GZLoaD0auqCHeKD6S58wgk35HmwJjpNrYKCTmTxd/SeKxl8/ienF2WXefzdFk9bOTm6N5Lz546UqiqhAVciZbr3FOQY3BWIVUkVBrdJr+ZtC6H31rRcrGRhEeyyEjkXXKxo0bYURPZUVPYUbPYUQuzEywL8PxEyoQBQloib5PW7UUWe0HrokySmCrg8D78PeybkkWGzrvjVjIvuH4+FiIbUQEDqBXeyxN46LJSkY3uZbffvRqnSMV2TCAFbaXVSDlkQmfBvNq4EkHsASVZZdetcW+QpTTSOp+8YlOLgL9pYnk4ToQicvl10J4MrpMZJONJkeZyfMe6Ed+xvgA2skTfcYU8TFacvPmcsQFLZ8dr7r82tXQiP3O7dSw/voYXlO4q5vl5u6WEjcypLxqFfRNqVSHyCL4FKaFHctihVBMCjFp1f7FErbF+MBEXRsEvZLo55TW19tJ1sT+LmlpQuitTm7f2YWpolHD6sQ1TaySFsh/E0uKy2LulDZ0nkgHOmxQp25WV3aUEnW+xcHMnRJr5lluqhymm+EkWW+4491hde7Ul3ssWbV9+7YtfJA0UTQyNGXBfyVbbPA8ud74bklUw60j9YgWfilQ/I4dzraYmBmuZ2QhiKJW9qxqLdLI3h6IxR/YytzAXT1vD42MIIXVJnC4nR8cylyaJ7OZRhxZeJcCPHu2eWH2ZQFkmUJYJlGUCZZlA+fE2xcsEyvezJV4mUP6aCCsTKN8TxsoEyl8VZ2UC5XvCWZlA+ashrEygfE8IKxMoywTKMoGyTKAsEyjLBMoygbJMoCwTKMsEyjKBskygLBMoywTKMoGyTKAsEyjLBMoygbJMoHzr+KNMoCwTKD9tAiXLkUS/iumT7KzT+Cmg4tm7GScqd+cL/4UkG4arGcVOT+72h4PRhP4scnoyGTg0xcTzk2U+BzLzcGMl7XBjde+HGw8WbefceR5MR45lATfhiGNKyDjkmKsg/WbotmTQQ8ElNJZEifQE7N/XgX9k+LhXSSBnuYaE6hunwkb7FPSZfOxxRGTIPPKL8PePe2KymphYK0bAR+scevtxXAin6Q2diJrmRGpv50S+wmdgEkNlcw/RmVjQz3IliCz1U2CAaRv4kdXICV5EJGb6ELHy5h6E61FQZYr/YA2o98gntQ/sOmq5XMfxeudlE7OmVzSsTJpYMhZe0hcRy1SR/jGf/zPDjH/DR/7fA2QfErQ9hAVgol98R9I5hWWaMq5mhBds4KeJUp0oaQYcIb5mwIVtN52ZmPP5qH/5US30lx930PRnYm4HLtvZktP8/WxBxzgL44DNsuvjPeVdZqh+7nWGuODWWWeI97KTtI5vABumgB1a+LnBszXslNBZz+i3gpzt3wSirjOzGenzhQXuZgBYY/QC/KUgIkkjH65UJ0ChmfamMj+F+lCxGJtFbxiJ1dIisfpGkRjhMR6HvT9h3thLD5hkeHHgLInKwm1g17oJl16CldWVYB+fXrg3mE494KdZfesZevz3Iay2B1ceYybnbh1ywVU1LSlVPTypn6qNRkNN8LvHjcOTRv24dqQqvK8VhNAM7mETbitc+w7DEUCRgJl9i2FYh7v9roNCXwNnMmzhLkORh4SYKLFGsfsMwz42ifVFRj70nYaF9FrM/4zwzYaj4jcbRuW787sNw+F2cbvhyRss3uHlOks3wMyxzMQtgMsX+xm8pBxzcfnj6s/ujy654bCjSsOZ7olX4OYEsRyOEwezQMpa3mDWKOO8X3k4Wj2jProvYAvX6KYzLmrzl7v28CTPUlxNiU9Yi8wL0ecUu0XdWrmWfniNJk2pxn6HJHazGl4xZ9PpjyfkXwFHw4ba6R6gstmscZebgP09bgIKCIswkLYN2N/zNmAmj6JSs3YC+59rJ1Cp53Ii1c+wFVhGSkUjpbRAqXF4dHrSUJRqPWmBqqEcHldP68dqfQeB0sontAHGieA9hcKI4+SmzLSadMAw70kjnLfkkW8dVkPLMIDnOS4E3hoRE+Mi7j2jlLwRUvyl1/ekrIcPHRqtqcpiLudicNWekB9FHA7lZ+eh0Ri4qHQnkdHp3mdFwxkkShPAfO0EGXBRYgTUqKlErdE1Wb0CGJXZGHSdNqGDKCsJ1TJnP6vqMuJUZpxuDuAUxgVFpsREEgUYMFu+rxszPNBZ5WDPRwluc5pzmitr4SQ+y+l5TBQhKMMCjfMcZLfIWj48ALPjYkzSv8ZE3eHvWs9sIu2S3oNHTCEVRwtgwGnwt6KsUpyC4BLvvcgEK46DYs5u+K03mpAfRZxdFKHbnGBVi0yvQisOP5lEYfRDEPwf22IqXU7pckqXI7qcECvsd+8VLsZPznhGTjB6jZVIzZz8ZA+dc9yig6ZEJvFifFQxXo8YAd9H0PIkfi6GHAXNPKxILbzB7vVR6AbplI5NtLGOuVT/5i2e1Rn4EFu+VFtBkewhB6uqmiyUa3yqI/WAkWUTj/6JxSqYYK6D6Pv/u9RXv2COAAA=

[PSD]
ActualTwoTheta=9999
FirstUsedChannel=0
FixedPSD=0
PSDOpening=4.99171
PSDType=5

[Drive]
DriveFlags=1
DriveName=2Theta
DriveNumber=2
DriveOffset=0
OffsetIndex=0
OscillationAmplitude=0
OscillationSpeed=0
StartPosition=40.0015

[Drive]
DriveFlags=1
DriveName=Theta
DriveNumber=1
DriveOffset=0
OffsetIndex=0
OscillationAmplitude=0
OscillationSpeed=0
StartPosition=20.0007

[Drive]
DriveFlags=1
DriveName=Phi
DriveNumber=3
DriveOffset=0
OffsetIndex=0
OscillationAmplitude=0
OscillationSpeed=0
StartPosition=0

[Data]
     Angle,       PSD,
   40.0015,       634,
   40.0217,       648,
   40.0418,       623,
    40.062,       676,
   40.0822,       607,
   40.1023,       623,
   40.1225,       589,
   40.1427,       672,
   40.1628,       684,
    40.183,       624,
   40.2032,       642,
   40.2233,       625,
   40.2435,       629,
   40.2637,       678,
   40.2838,       622,
    40.304,       626,
   40.3242,       620,
   40.3444,       694,
   40.3645,       635,
   40.3847,       589,
   40.4049,       623,
    40.425,       626,
   40.4452,       667,
   40.4654,       612,
   40.4855,       630,
   40.5057,       614,
   40.5259,       614,
    40.546,       590,
   40.5662,       616,
   40.5864,       691,
   40.6065,       627,
   40.6267,       614,
   40.6469,       672,
   40.6671,       669,
   40.6872,       655,
   40.7074,       667,
   40.7276,       658,
   40.7477,       625,
   40.7679,       631,
   40.7881,       664,
   40.8082,       638,
   40.8284,       601,
   40.8486,       673,
   40.8687,       604,
   40.8889,       621,
   40.9091,       678,
   40.9292,       643,
   40.9494,       625,
   40.9696,       605,
   40.9897,       675,
   41.0099,       622,
   41.0301,       606,
   41.0503,       663,
   41.0704,       627,
   41.0906,       653,
   41.1108,       661,
   41.1309,       655,
   41.1511,       589,
   41.1713,       632,
   41.1914,       680,
   41.2116,       624,
   41.2318,       626,
   41.2519,       607,
   41.2721,       645,
   41.2923,       655,
   41.3124,       616,
   41.3326,       615,
   41.3528,       652,
   41.3729,       619,
   41.3931,       649,
   41.4133,       681,
   41.4335,       607,
   41.4536,       640,
   41.4738,       625,
    41.494,       697,
   41.5141,       650,
   41.5343,       659,
   41.5545,       597,
   41.5746,       659,
   41.5948,       647,
    41.615,       613,
   41.6351,       653,
   41.6553,       619,
   41.6755,       666,
   41.6956,       618,
   41.7158,       646,
    41.736,       635,
   41.7562,       637,
   41.7763,       664,
   41.7965,       694,
   41.8167,       700,
   41.8368,       766,
    41.857,       769,
   41.8772,       756,
   41.8973,       746,
   41.9175,       759,
   41.9377,       795,
   41.9578,       791,
    41.978,       743,
   41.9982,       789,
   42.0183,       735,
   42.0385,       755,
   42.0587,       760,
   42.0788,       790,
    42.099,       744,
   42.1192,       724,
   42.1394,       740,
   42.1595,       790,
   42.1797,       825,
   42.1999,       814,
     42.22,       805,
   42.2402,       777,
   42.2604,       790,
   42.2805,       761,
   42.3007,       806,
   42.3209,       809,
    42.341,       779,
   42.3612,       778,
   42.3814,       738,
   42.4015,       780,
   42.4217,       791,
   42.4419,       790,
    42.462,       745,
   42.4822,       784,
   42.5024,       821,
   42.5226,       791,
   42.5427,       745,
   42.5629,       828,
   42.5831,       794,
   42.6032,       767,
   42.6234,       753,
   42.6436,       813,
   42.6637,       773,
   42.6839,       806,
   42.7041,       798,
   42.7242,       776,
   42.7444,       813,
   42.7646,       851,
   42.7847,       847,
   42.8049,       840,
   42.8251,       848,
   42.8453,       840,
   42.8654,       903,
   42.8856,       950,
   42.9058,       969,
   42.9259,      1002,
   42.9461,      1012,
   42.9663,      1087,
   42.9864,      1190,
   43.0066,      1199,
   43.0268,      1260,
   43.0469,      1330,
   43.0671,      1299,
   43.0873,      1416,
   43.1074,      1471,
   43.1276,      1721,
   43.1478,      1888,
   43.1679,      2095,
   43.1881,      2198,
   43.2083,      2171,
   43.2285,      2484,
   43.2486,      2772,
   43.2688,      3794,
    43.289,      5620,
   43.3091,     10978,
   43.3293,     24239,
   43.3495,     49193,
   43.3696,     61364,
   43.3898,     42512,
     43.41,     19972,
   43.4301,     13966,
   43.4503,     19982,
   43.4705,     30123,
   43.4906,     29693,
   43.5108,     17169,
    43.531,      7692,
   43.5511,      4218,
   43.5713,      2992,
   43.5915,      2558,
   43.6117,      2132,
   43.6318,      1974,
    43.652,      1796,
   43.6722,      1688,
   43.6923,      1441,
   43.7125,      1342,
   43.7327,      1381,
   43.7528,      1174,
    43.773,      1165,
   43.7932,      1188,
   43.8133,      1089,
   43.8335,       960,
   43.8537,       934,
   43.8738,       903,
    43.894,       934,
   43.9142,       911,
   43.9344,       908,
   43.9545,       864,
   43.9747,       838,
   43.9949,       833,
    44.015,       799,
   44.0352,       794,
   44.0554,       870,
   44.0755,       846,
   44.0957,       843,
   44.1159,       761,
    44.136,       833,
   44.1562,       835,
   44.1764,       817,
   44.1965,       802,
   44.2167,       807,
   44.2369,       782,
    44.257,       813,
   44.2772,       757,
   44.2974,       764,
   44.3176,       780,
   44.3377,       827,
   44.3579,       773,
   44.3781,       780,
   44.3982,       808,
   44.4184,       788,
   44.4386,       775,
   44.4587,       756,
   44.4789,       769,
   44.4991,       783,
   44.5192,       778,
   44.5394,       737,
   44.5596,       815,
   44.5797,       799,
   44.5999,       748,
   44.6201,       741,
   44.6402,       751,
   44.6604,       709,
   44.6806,       733,
   44.7008,       695,
   44.7209,       707,
   44.7411,       775,
   44.7613,       738,
   44.7814,       765,
   44.8016,       698,
   44.8218,       717,
   44.8419,       726,
   44.8621,       799,
   44.8823,       733,
   44.9024,       720,
   44.9226,       680,
   44.9428,       739,
   44.9629,       732,
   44.9831,       736,
   45.0033,       706,
   45.0235,       730,
   45.0436,       754,
   45.0638,       730,
    45.084,       751,
   45.1041,       746,
   45.1243,       697,
   45.1445,       726,
   45.1646,       738,
   45.1848,       696,
    45.205,       747,
   45.2251,       710,
   45.2453,       722,
   45.2655,       743,
   45.2856,       693,
   45.3058,       744,
    45.326,       706,
   45.3461,       769,
   45.3663,       790,
   45.3865,       709,
   45.4067,       789,
   45.4268,       686,
    45.447,       693,
   45.4672,       741,
   45.4873,       716,
   45.5075,       743,
   45.5277,       742,
   45.5478,       694,
    45.568,       757,
   45.5882,       690,
   45.6083,       680,
   45.6285,       772,
   45.6487,       676,
   45.6688,       718,
    45.689,       669,
   45.7092,       686,
   45.7294,       683,
   45.7495,       724,
   45.7697,       698,
   45.7899,       693,
     45.81,       716,
   45.8302,       662,
   45.8504,       715,
   45.8705,       724,
   45.8907,       702,
   45.9109,       652,
    45.931,       674,
   45.9512,       721,
   45.9714,       655,
   45.9915,       694,
   46.0117,       711,
   46.0319,       708,
    46.052,       716,
   46.0722,       690,
   46.0924,       725,
   46.1126,       684,
   46.1327,       661,
   46.1529,       695,
   46.1731,       691,
   46.1932,       696,
   46.2134,       674,
   46.2336,       701,
   46.2537,       700,
   46.2739,       655,
   46.2941,       725,
   46.3142,       667,
   46.3344,       705,
   46.3546,       630,
   46.3747,       681,
   46.3949,       674,
   46.4151,       709,
   46.4352,       649,
   46.4554,       674,
   46.4756,       683,
   46.4958,       705,
   46.5159,       714,
   46.5361,       728,
   46.5563,       710,
   46.5764,       644,
   46.5966,       703,
   46.6168,       678,
   46.6369,       656,
   46.6571,       739,
   46.6773,       688,
   46.6974,       713,
   46.7176,       697,
   46.7378,       667,
   46.7579,       658,
   46.7781,       663,
   46.7983,       677,
   46.8185,       710,
   46.8386,       685,
   46.8588,       682,
    46.879,       697,
   46.8991,       673,
   46.9193,       716,
   46.9395,       693,
   46.9596,       688,
   46.9798,       719,
        47,       694,
   47.0201,       720,
   47.0403,       684,
   47.0605,       646,
   47.0806,       700,
   47.1008,       689,
    47.121,       694,
   47.1411,       640,
   47.1613,       675,
   47.1815,       657,
   47.2017,       663,
   47.2218,       692,
    47.242,       667,
   47.2622,       681,
   47.2823,       649,
   47.3025,       663,
   47.3227,       736,
   47.3428,       670,
    47.363,       681,
   47.3832,       665,
   47.4033,       671,
   47.4235,       695,
   47.4437,       706,
   47.4638,       670,
    47.484,       651,
   47.5042,       661,
   47.5243,       683,
   47.5445,       695,
   47.5647,       668,
   47.5849,       693,
    47.605,       680,
   47.6252,       654,
   47.6454,       679,
   47.6655,       672,
   47.6857,       683,
   47.7059,       662,
    47.726,       648,
   47.7462,       676,
   47.7664,       683,
   47.7865,       684,
   47.8067,       657,
   47.8269,       671,
    47.847,       678,
   47.8672,       659,
   47.8874,       700,
   47.9076,       633,
   47.9277,       658,
   47.9479,       667,
   47.9681,       670,
   47.9882,       687,
   48.0084,       687,
   48.0286,       678,
   48.0487,       625,
   48.0689,       662,
   48.0891,       629,
   48.1092,       720,
   48.1294,       672,
   48.1496,       682,
   48.1697,       701,
   48.1899,       632,
   48.2101,       710,
   48.2302,       671,
   48.2504,       653,
   48.2706,       656,
   48.2908,       646,
   48.3109,       688,
   48.3311,       643,
   48.3513,       711,
   48.3714,       666,
   48.3916,       681,
   48.4118,       678,
   48.4319,       700,
   48.4521,       663,
   48.4723,       651,
   48.4924,       702,
   48.5126,       671,
   48.5328,       715,
   48.5529,       635,
   48.5731,       681,
   48.5933,       687,
   48.6134,       674,
   48.6336,       664,
   48.6538,       715,
    48.674,       659,
   48.6941,       683,
   48.7143,       714,
   48.7345,       675,
   48.7546,       728,
   48.7748,       649,
    48.795,       697,
   48.8151,       688,
   48.8353,       701,
   48.8555,       686,
   48.8756,       688,
   48.8958,       661,
    48.916,       693,
   48.9361,       705,
   48.9563,       687,
   48.9765,       681,
   48.9967,       692,
   49.0168,       714,
    49.037,       705,
   49.0572,       698,
   49.0773,       715,
   49.0975,       693,
   49.1177,       725,
   49.1378,       710,
    49.158,       704,
   49.1782,       685,
   49.1983,       647,
   49.2185,       687,
   49.2387,       714,
   49.2588,       669,
    49.279,       717,
   49.2992,       716,
   49.3193,       652,
   49.3395,       685,
   49.3597,       709,
   49.3799,       727,
      49.4,       697,
   49.4202,       709,
   49.4404,       647,
   49.4605,       696,
   49.4807,       710,
   49.5009,       707,
    49.521,       742,
   49.5412,       723,
   49.5614,       745,
   49.5815,       743,
   49.6017,       694,
   49.6219,       694,
    49.642,       685,
   49.6622,       709,
   49.6824,       725,
   49.7025,       670,
   49.7227,       731,
   49.7429,       701,
   49.7631,       713,
   49.7832,       724,
   49.8034,       708,
   49.8236,       711,
   49.8437,       691,
   49.8639,       776,
   49.8841,       739,
   49.9042,       720,
   49.9244,       732,
   49.9446,       695,
   49.9647,       759,
   49.9849,       752,
   50.0051,       802,
   50.0252,       772,
   50.0454,       831,
   50.0656,       780,
   50.0858,       825,
   50.1059,       899,
   50.1261,       811,
   50.1463,       926,
   50.1664,       897,
   50.1866,       918,
   50.2068,       987,
   50.2269,      1003,
   50.2471,      1102,
   50.2673,      1134,
   50.2874,      1175,
   50.3076,      1268,
   50.3278,      1310,
   50.3479,      1374,
   50.3681,      1587,
   50.3883,      1996,
   50.4084,      2527,
   50.4286,      3832,
   50.4488,      6304,
    50.469,      9960,
   50.4891,     13993,
   50.5093,     14094,
   50.5295,     10143,
   50.5496,      6625,
   50.5698,      5081,
     50.59,      5393,
   50.6101,      6953,
   50.6303,      8052,
   50.6505,      7121,
   50.6706,      4792,
   50.6908,      3059,
    50.711,      2170,
   50.7311,      1698,
   50.7513,      1351,
   50.7715,      1249,
   50.7917,      1169,
   50.8118,      1037,
    50.832,      1057,
   50.8522,       997,
   50.8723,       937,
   50.8925,       903,
   50.9127,       858,
   50.9328,       890,
    50.953,       809,
   50.9732,       772,
   50.9933,       798,
   51.0135,       733,
   51.0337,       791,
   51.0538,       738,
    51.074,       746,
   51.0942,       703,
   51.1143,       739,
   51.1345,       719,
   51.1547,       695,
   51.1749,       706,
    51.195,       710,
   51.2152,       661,
   51.2354,       688,
   51.2555,       732,
   51.2757,       748,
   51.2959,       735,
    51.316,       731,
   51.3362,       736,
   51.3564,       746,
   51.3765,       717,
   51.3967,       684,
   51.4169,       723,
    51.437,       647,
   51.4572,       648,
   51.4774,       735,
   51.4975,       680,
   51.5177,       696,
   51.5379,       715,
   51.5581,       664,
   51.5782,       661,
   51.5984,       662,
   51.6186,       665,
   51.6387,       697,
   51.6589,       708,
   51.6791,       760,
   51.6992,       645,
   51.7194,       701,
   51.7396,       640,
   51.7597,       680,
   51.7799,       689,
   51.8001,       682,
   51.8202,       708,
   51.8404,       655,
   51.8606,       644,
   51.8808,       689,
   51.9009,       677,
   51.9211,       640,
   51.9413,       672,
   51.9614,       685,
   51.9816,       676,
   52.0018,       705,
   52.0219,       700,
   52.0421,       678,
   52.0623,       640,
   52.0824,       618,
   52.1026,       628,
   52.1228,       661,
   52.1429,       669,
   52.1631,       606,
   52.1833,       680,
   52.2034,       651,
   52.2236,       691,
   52.2438,       673,
    52.264,       667,
   52.2841,       668,
   52.3043,       686,
   52.3245,       685,
   52.3446,       650,
   52.3648,       698,
    52.385,       691,
   52.4051,       631,
   52.4253,       649,
   52.4455,       681,
   52.4656,       632,
   52.4858,       649,
    52.506,       643,
   52.5261,       690,
   52.5463,       695,
   52.5665,       649,
   52.5866,       622,
   52.6068,       679,
    52.627,       678,
   52.6472,       695,
   52.6673,       653,
   52.6875,       644,
   52.7077,       638,
   52.7278,       678,
    52.748,       664,
   52.7682,       647,
   52.7883,       691,
   52.8085,       685,
   52.8287,       657,
   52.8488,       664,
    52.869,       679,
   52.8892,       664,
   52.9093,       681,
   52.9295,       632,
   52.9497,       669,
   52.9699,       648,
     52.99,       653,
   53.0102,       633,
   53.0304,       640,
   53.0505,       611,
   53.0707,       625,
   53.0909,       639,
    53.111,       655,
   53.1312,       668,
   53.1514,       635,
   53.1715,       631,
   53.1917,       606,
   53.2119,       677,
    53.232,       656,
   53.2522,       613,
   53.2724,       634,
   53.2925,       611,
   53.3127,       631,
   53.3329,       611,
   53.3531,       680,
   53.3732,       658,
   53.3934,       634,
   53.4136,       667,
   53.4337,       654,
   53.4539,       632,
   53.4741,       619,
   53.4942,       694,
   53.5144,       659,
   53.5346,       645,
   53.5547,       607,
   53.5749,       663,
   53.5951,       622,
   53.6152,       663,
   53.6354,       608,
   53.6556,       637,
   53.6757,       625,
   53.6959,       614,
   53.7161,       634,
   53.7363,       640,
   53.7564,       628,
   53.7766,       651,
   53.7968,       632,
   53.8169,       614,
   53.8371,       652,
   53.8573,       619,
   53.8774,       666,
   53.8976,       630,
   53.9178,       604,
   53.9379,       650,
   53.9581,       673,
   53.9783,       667,
   53.9984,       618,
   54.0186,       608,
   54.0388,       636,
    54.059,       651,
   54.0791,       662,
   54.0993,       612,
   54.1195,       627,
   54.1396,       611,
   54.1598,       604,
     54.18,       618,
   54.2001,       654,
   54.2203,       666,
   54.2405,       616,
   54.2606,       652,
   54.2808,       644,
    54.301,       644,
   54.3211,       674,
   54.3413,       659,
   54.3615,       660,
   54.3816,       648,
   54.4018,       618,
    54.422,       634,
   54.4422,       644,
   54.4623,       635,
   54.4825,       620,
   54.5027,       648,
   54.5228,       641,
    54.543,       615,
   54.5632,       601,
   54.5833,       599,
   54.6035,       641,
   54.6237,       596,
   54.6438,       647,
    54.664,       665,
   54.6842,       647,
   54.7043,       624,
   54.7245,       614,
   54.7447,       620,
   54.7648,       680,
    54.785,       674,
   54.8052,       673,
   54.8254,       619,
   54.8455,       655,
   54.8657,       639,
   54.8859,       614,
    54.906,       636,
   54.9262,       660,
   54.9464,       602,
   54.9665,       641,
   54.9867,       639,
   55.0069,       655,
    55.027,       675,
   55.0472,       653,
   55.0674,       641,
   55.0875,       617,
   55.1077,       651,
   55.1279,       576,
   55.1481,       655,
   55.1682,       646,
   55.1884,       608,
   55.2086,       670,
   55.2287,       624,
   55.2489,       625,
   55.2691,       648,
   55.2892,       643,
   55.3094,       641,
   55.3296,       648,
   55.3497,       618,
   55.3699,       661,
   55.3901,       639,
   55.4102,       588,
   55.4304,       673,
   55.4506,       644,
   55.4707,       646,
   55.4909,       606,
   55.5111,       652,
   55.5313,       623,
   55.5514,       643,
   55.5716,       629,
   55.5918,       640,
   55.6119,       599,
   55.6321,       609,
   55.6523,       630,
   55.6724,       605,
   55.6926,       579,
   55.7128,       649,
   55.7329,       636,
   55.7531,       626,
   55.7733,       633,
   55.7934,       659,
   55.8136,       652,
   55.8338,       655,
    55.854,       615,
   55.8741,       649,
   55.8943,       615,
   55.9145,       596,
   55.9346,       654,
   55.9548,       628,
    55.975,       609,
   55.9951,       612,
   56.0153,       658,
   56.0355,       668,
   56.0556,       639,
   56.0758,       624,
    56.096,       645,
   56.1161,       634,
   56.1363,       620,
   56.1565,       681,
   56.1766,       628,
   56.1968,       582,
    56.217,       607,
   56.2372,       622,
   56.2573,       635,
   56.2775,       624,
   56.2977,       600,
   56.3178,       658,
    56.338,       626,
   56.3582,       682,
   56.3783,       625,
   56.3985,       590,
   56.4187,       619,
   56.4388,       628,
    56.459,       655,
   56.4792,       652,
   56.4993,       591,
   56.5195,       620,
   56.5397,       619,
   56.5598,       581,
     56.58,       643,
   56.6002,       621,
   56.6204,       598,
   56.6405,       675,
   56.6607,       652,
   56.6809,       651,
    56.701,       622,
   56.7212,       613,
   56.7414,       628,
   56.7615,       605,
   56.7817,       623,
   56.8019,       617,
    56.822,       643,
   56.8422,       617,
   56.8624,       604,
   56.8825,       619,
   56.9027,       610,
   56.9229,       630,
   56.9431,       570,
   56.9632,       639,
   56.9834,       618,
   57.0036,       593,
   57.0237,       634,
   57.0439,       635,
   57.0641,       602,
   57.0842,       667,
   57.1044,       627,
   57.1246,       647,
   57.1447,       624,
   57.1649,       616,
   57.1851,       636,
   57.2052,       595,
   57.2254,       615,
   57.2456,       664,
   57.2657,       608,
   57.2859,       633,
   57.3061,       637,
   57.3263,       628,
   57.3464,       659,
   57.3666,       646,
   57.3868,       641,
   57.4069,       644,
   57.4271,       618,
   57.4473,       580,
   57.4674,       624,
   57.4876,       608,
   57.5078,       663,
   57.5279,       625,
   57.5481,       616,
   57.5683,       628,
   57.5884,       636,
   57.6086,       619,
   57.6288,       587,
   57.6489,       606,
   57.6691,       642,
   57.6893,       634,
   57.7095,       608,
   57.7296,       600,
   57.7498,       665,
     57.77,       633,
   57.7901,       625,
   57.8103,       648,
   57.8305,       628,
   57.8506,       602,
   57.8708,       580,
    57.891,       649,
   57.9111,       596,
   57.9313,       578,
   57.9515,       599,
   57.9716,       659,
   57.9918,       650,
    58.012,       621,
   58.0322,       628,
   58.0523,       621,
   58.0725,       645,
   58.0927,       585,
   58.1128,       630,
    58.133,       606,
   58.1532,       642,
   58.1733,       618,
   58.1935,       617,
   58.2137,       649,
   58.2338,       641,
    58.254,       615,
   58.2742,       658,
   58.2943,       564,
   58.3145,       597,
   58.3347,       622,
   58.3548,       589,
    58.375,       618,
   58.3952,       644,
   58.4154,       653,
   58.4355,       617,
   58.4557,       629,
   58.4759,       667,
    58.496,       586,
   58.5162,       637,
   58.5364,       607,
   58.5565,       627,
   58.5767,       663,
   58.5969,       623,
    58.617,       579,
   58.6372,       591,
   58.6574,       645,
   58.6775,       628,
   58.6977,       580,
   58.7179,       612,
    58.738,       635,
   58.7582,       644,
   58.7784,       628,
   58.7986,       624,
   58.8187,       638,
   58.8389,       638,
   58.8591,       634,
   58.8792,       628,
   58.8994,       568,
   58.9196,       638,
   58.9397,       641,
   58.9599,       599,
   58.9801,       617,
   59.0002,       650,
   59.0204,       645,
   59.0406,       637,
   59.0607,       671,
   59.0809,       649,
   59.1011,       607,
   59.1213,       641,
   59.1414,       622,
   59.1616,       644,
   59.1818,       612,
   59.2019,       613,
   59.2221,       598,
   59.2423,       686,
   59.2624,       642,
   59.2826,       615,
   59.3028,       627,
   59.3229,       592,
   59.3431,       639,
   59.3633,       668,
   59.3834,       613,
   59.4036,       644,
   59.4238,       629,
   59.4439,       603,
   59.4641,       639,
   59.4843,       650,
   59.5045,       616,
   59.5246,       638,
   59.5448,       613,
    59.565,       597,
   59.5851,       641,
   59.6053,       654,
   59.6255,       614,
   59.6456,       630,
   59.6658,       623,
    59.686,       657,
   59.7061,       616,
   59.7263,       653,
   59.7465,       651,
   59.7666,       647,
   59.7868,       619,
    59.807,       611,
   59.8271,       628,
   59.8473,       664,
   59.8675,       593,
   59.8877,       641,
   59.9078,       610,
    59.928,       603,
   59.9482,       562,
   59.9683,       632,
   59.9885,       616,
   60.0087,       624,
   60.0288,       663,
    60.049,       649,
   60.0692,       588,
   60.0893,       591,
   60.1095,       603,
   60.1297,       605,
   60.1498,       643,
     60.17,       626,
   60.1902,       597,
   60.2104,       606,
   60.2305,       615,
   60.2507,       581,
   60.2709,       589,
    60.291,       633,
   60.3112,       593,
   60.3314,       649,
   60.3515,       631,
   60.3717,       606,
   60.3919,       606,
    60.412,       647,
   60.4322,       557,
   60.4524,       605,
   60.4725,       624,
   60.4927,       672,
   60.5129,       629,
    60.533,       594,
   60.5532,       587,
   60.5734,       599,
   60.5936,       614,
   60.6137,       612,
   60.6339,       592,
   60.6541,       591,
   60.6742,       622,
   60.6944,       597,
   60.7146,       620,
   60.7347,       602,
   60.7549,       618,
   60.7751,       607,
   60.7952,       634,
   60.8154,       604,
   60.8356,       632,
   60.8557,       652,
   60.8759,       619,
   60.8961,       602,
   60.9163,       629,
   60.9364,       626,
   60.9566,       617,
   60.9768,       590,
   60.9969,       622,
   61.0171,       628,
   61.0373,       579,
   61.0574,       597,
   61.0776,       625,
   61.0978,       582,
   61.1179,       601,
   61.1381,       646,
   61.1583,       592,
   61.1784,       580,
   61.1986,       629,
   61.2188,       657,
   61.2389,       624,
   61.2591,       604,
   61.2793,       580,
   61.2995,       610,
   61.3196,       601,
   61.3398,       621,
     61.36,       616,
   61.3801,       589,
   61.4003,       626,
   61.4205,       653,
   61.4406,       595,
   61.4608,       651,
    61.481,       609,
   61.5011,       591,
   61.5213,       607,
   61.5415,       600,
   61.5616,       591,
   61.5818,       653,
    61.602,       605,
   61.6221,       597,
   61.6423,       632,
   61.6625,       627,
   61.6827,       596,
   61.7028,       636,
    61.723,       631,
   61.7432,       575,
   61.7633,       619,
   61.7835,       606,
   61.8037,       625,
   61.8238,       639,
    61.844,       609,
   61.8642,       619,
   61.8843,       592,
   61.9045,       622,
   61.9247,       617,
   61.9448,       558,
    61.965,       599,
   61.9852,       635,
   62.0054,       633,
   62.0255,       622,
   62.0457,       608,
   62.0659,       621,
    62.086,       634,
   62.1062,       618,
   62.1264,       593,
   62.1465,       657,
   62.1667,       610,
   62.1869,       621,
    62.207,       636,
   62.2272,       584,
   62.2474,       566,
   62.2675,       534,
   62.2877,       614,
   62.3079,       582,
    62.328,       626,
   62.3482,       621,
   62.3684,       571,
   62.3886,       659,
   62.4087,       610,
   62.4289,       630,
   62.4491,       624,
   62.4692,       592,
   62.4894,       619,
   62.5096,       587,
   62.5297,       581,
   62.5499,       577,
   62.5701,       611,
   62.5902,       600,
   62.6104,       622,
   62.6306,       589,
   62.6507,       605,
   62.6709,       587,
   62.6911,       581,
   62.7112,       598,
   62.7314,       613,
   62.7516,       618,
   62.7718,       622,
   62.7919,       625,
   62.8121,       626,
   62.8323,       636,
   62.8524,       591,
   62.8726,       593,
   62.8928,       624,
   62.9129,       638,
   62.9331,       612,
   62.9533,       610,
   62.9734,       629,
   62.9936,       594,
   63.0138,       608,
   63.0339,       612,
   63.0541,       653,
   63.0743,       611,
   63.0945,       589,
   63.1146,       655,
   63.1348,       616,
    63.155,       640,
   63.1751,       618,
   63.1953,       591,
   63.2155,       575,
   63.2356,       614,
   63.2558,       601,
    63.276,       638,
   63.2961,       629,
   63.3163,       619,
   63.3365,       575,
   63.3566,       608,
   63.3768,       584,
    63.397,       613,
   63.4171,       601,
   63.4373,       640,
   63.4575,       603,
   63.4777,       614,
   63.4978,       576,
    63.518,       601,
   63.5382,       606,
   63.5583,       571,
   63.5785,       574,
   63.5987,       659,
   63.6188,       647,
    63.639,       610,
   63.6592,       613,
   63.6793,       619,
   63.6995,       593,
   63.7197,       611,
   63.7398,       642,
     63.76,       628,
   63.7802,       591,
   63.8003,       593,
   63.8205,       633,
   63.8407,       606,
   63.8609,       603,
    63.881,       591,
   63.9012,       541,
   63.9214,       552,
   63.9415,       579,
   63.9617,       634,
   63.9819,       619,
    64.002,       585,
   64.0222,       632,
   64.0424,       631,
   64.0625,       611,
   64.0827,       635,
   64.1029,       636,
    64.123,       621,
   64.1432,       655,
   64.1634,       636,
   64.1836,       648,
   64.2037,       633,
   64.2239,       583,
   64.2441,       545,
   64.2642,       569,
   64.2844,       618,
   64.3046,       618,
   64.3247,       635,
   64.3449,       622,
   64.3651,       611,
   64.3852,       633,
   64.4054,       643,
   64.4256,       605,
   64.4457,       616,
   64.4659,       597,
   64.4861,       632,
   64.5062,       595,
   64.5264,       622,
   64.5466,       612,
   64.5668,       635,
   64.5869,       599,
   64.6071,       643,
   64.6273,       608,
   64.6474,       597,
   64.6676,       598,
   64.6878,       579,
   64.7079,       586,
   64.7281,       608,
   64.7483,       645,
   64.7684,       599,
   64.7886,       638,
   64.8088,       609,
   64.8289,       605,
   64.8491,       602,
   64.8693,       639,
   64.8894,       580,
   64.9096,       593,
   64.9298,       596,
     64.95,       598,
   64.9701,       606,
   64.9903,       594,
   65.0105,       618,
   65.0306,       645,
   65.0508,       619,
    65.071,       583,
   65.0911,       631,
   65.1113,       603,
   65.1315,       611,
   65.1516,       593,
   65.1718,       608,
    65.192,       647,
   65.2121,       642,
   65.2323,       579,
   65.2525,       634,
   65.2727,       562,
   65.2928,       625,
    65.313,       595,
   65.3332,       607,
   65.3533,       618,
   65.3735,       600,
   65.3937,       566,
   65.4138,       619,
    65.434,       585,
   65.4542,       613,
   65.4743,       599,
   65.4945,       606,
   65.5147,       606,
   65.5348,       619,
    65.555,       623,
   65.5752,       599,
   65.5953,       632,
   65.6155,       611,
   65.6357,       664,
   65.6559,       624,
    65.676,       612,
   65.6962,       581,
   65.7164,       595,
   65.7365,       595,
   65.7567,       560,
   65.7769,       636,
    65.797,       579,
   65.8172,       600,
   65.8374,       601,
   65.8575,       592,
   65.8777,       664,
   65.8979,       617,
    65.918,       600,
   65.9382,       582,
   65.9584,       643,
   65.9786,       674,
   65.9987,       586,
   66.0189,       638,
   66.0391,       607,
   66.0592,       667,
   66.0794,       670,
   66.0996,       600,
   66.1197,       617,
   66.1399,       638,
   66.1601,       599,
   66.1802,       613,
   66.2004,       580,
   66.2206,       605,
   66.2407,       647,
   66.2609,       567,
   66.2811,       596,
   66.3012,       649,
   66.3214,       606,
   66.3416,       635,
   66.3618,       581,
   66.3819,       626,
   66.4021,       563,
   66.4223,       638,
   66.4424,       619,
   66.4626,       630,
   66.4828,       618,
   66.5029,       604,
   66.5231,       628,
   66.5433,       595,
   66.5634,       639,
   66.5836,       555,
   66.6038,       558,
   66.6239,       607,
   66.6441,       603,
   66.6643,       575,
   66.6844,       604,
   66.7046,       637,
   66.7248,       618,
    66.745,       637,
   66.7651,       664,
   66.7853,       628,
   66.8055,       623,
   66.8256,       624,
   66.8458,       598,
    66.866,       608,
   66.8861,       547,
   66.9063,       584,
   66.9265,       609,
   66.9466,       617,
   66.9668,       584,
    66.987,       595,
   67.0071,       610,
   67.0273,       591,
   67.0475,       611,
   67.0677,       636,
   67.0878,       578,
    67.108,       584,
   67.1282,       575,
   67.1483,       623,
   67.1685,       655,
   67.1887,       620,
   67.2088,       592,
    67.229,       589,
   67.2492,       607,
   67.2693,       654,
   67.2895,       606,
   67.3097,       599,
   67.3298,       542,
     67.35,       603,
   67.3702,       567,
   67.3903,       626,
   67.4105,       602,
   67.4307,       559,
   67.4509,       599,
    67.471,       635,
   67.4912,       591,
   67.5114,       589,
   67.5315,       581,
   67.5517,       614,
   67.5719,       606,
    67.592,       594,
   67.6122,       622,
   67.6324,       606,
   67.6525,       648,
   67.6727,       612,
   67.6929,       607,
    67.713,       626,
   67.7332,       624,
   67.7534,       635,
   67.7735,       551,
   67.7937,       556,
   67.8139,       598,
   67.8341,       588,
   67.8542,       623,
   67.8744,       639,
   67.8946,       606,
   67.9147,       593,
   67.9349,       596,
   67.9551,       621,
   67.9752,       619,
   67.9954,       590,
   68.0156,       615,
   68.0357,       648,
   68.0559,       569,
   68.0761,       556,
   68.0962,       630,
   68.1164,       600,
   68.1366,       603,
   68.1568,       618,
   68.1769,       584,
   68.1971,       644,
   68.2173,       591,
   68.2374,       610,
   68.2576,       600,
   68.2778,       593,
   68.2979,       607,
   68.3181,       626,
   68.3383,       594,
   68.3584,       574,
   68.3786,       598,
   68.3988,       570,
   68.4189,       609,
   68.4391,       598,
   68.4593,       587,
   68.4794,       639,
   68.4996,       603,
   68.5198,       615,
     68.54,       597,
   68.5601,       638,
   68.5803,       609,
   68.6005,       601,
   68.6206,       593,
   68.6408,       636,
    68.661,       649,
   68.6811,       644,
   68.7013,       521,
   68.7215,       622,
   68.7416,       590,
   68.7618,       661,
    68.782,       626,
   68.8021,       559,
   68.8223,       645,
   68.8425,       579,
   68.8626,       616,
   68.8828,       584,
    68.903,       643,
   68.9232,       594,
   68.9433,       631,
   68.9635,       606,
   68.9837,       625,
   69.0038,       610,
    69.024,       637,
   69.0442,       608,
   69.0643,       606,
   69.0845,       598,
   69.1047,       639,
   69.1248,       592,
    69.145,       577,
   69.1652,       615,
   69.1853,       605,
   69.2055,       593,
   69.2257,       603,
   69.2459,       616,
    69.266,       571,
   69.2862,       593,
   69.3064,       591,
   69.3265,       573,
   69.3467,       604,
   69.3669,       605,
    69.387,       597,
   69.4072,       628,
   69.4274,       629,
   69.4475,       619,
   69.4677,       568,
   69.4879,       628,
    69.508,       617,
   69.5282,       576,
   69.5484,       560,
   69.5685,       606,
   69.5887,       605,
   69.6089,       613,
   69.6291,       575,
   69.6492,       620,
   69.6694,       604,
   69.6896,       581,
   69.7097,       574,
   69.7299,       594,
   69.7501,       607,
   69.7702,       622,
   69.7904,       561,
   69.8106,       598,
   69.8307,       569,
   69.8509,       642,
   69.8711,       570,
   69.8912,       615,
   69.9114,       588,
   69.9316,       597,
   69.9517,       587,
   69.9719,       587,
   69.9921,       632,
   70.0123,       627,
   70.0324,       614,
   70.0526,       624,
   70.0728,       656,
   70.0929,       571,
   70.1131,       596,
   70.1333,       637,
   70.1534,       617,
   70.1736,       635,
   70.1938,       633,
   70.2139,       588,
   70.2341,       641,
   70.2543,       597,
   70.2744,       581,
   70.2946,       598,
   70.3148,       600,
    70.335,       565,
   70.3551,       609,
   70.3753,       604,
   70.3955,       602,
   70.4156,       633,
   70.4358,       612,
    70.456,       589,
   70.4761,       585,
   70.4963,       593,
   70.5165,       663,
   70.5366,       598,
   70.5568,       610,
    70.577,       656,
   70.5971,       570,
   70.6173,       611,
   70.6375,       613,
   70.6576,       610,
   70.6778,       623,
    70.698,       609,
   70.7182,       603,
   70.7383,       568,
   70.7585,       615,
   70.7787,       607,
   70.7988,       561,
    70.819,       600,
   70.8392,       621,
   70.8593,       586,
   70.8795,       633,
   70.8997,       603,
   70.9198,       615,
     70.94,       616,
   70.9602,       656,
   70.9803,       599,
   71.0005,       578,
   71.0207,       596,
   71.0409,       595,
    71.061,       609,
   71.0812,       590,
   71.1014,       592,
   71.1215,       629,
   71.1417,       591,
   71.1619,       620,
    71.182,       620,
   71.2022,       675,
   71.2224,       584,
   71.2425,       635,
   71.2627,       638,
   71.2829,       687,
    71.303,       627,
   71.3232,       636,
   71.3434,       651,
   71.3635,       638,
   71.3837,       619,
   71.4039,       593,
   71.4241,       589,
   71.4442,       650,
   71.4644,       640,
   71.4846,       618,
   71.5047,       616,
   71.5249,       634,
   71.5451,       612,
   71.5652,       609,
   71.5854,       634,
   71.6056,       624,
   71.6257,       658,
   71.6459,       667,
   71.6661,       592,
   71.6862,       592,
   71.7064,       603,
   71.7266,       593,
   71.7467,       634,
   71.7669,       623,
   71.7871,       663,
   71.8073,       630,
   71.8274,       634,
   71.8476,       627,
   71.8678,       619,
   71.8879,       622,
   71.9081,       658,
   71.9283,       616,
   71.9484,       636,
   71.9686,       618,
   71.9888,       644,
   72.0089,       565,
   72.0291,       561,
   72.0493,       644,
   72.0694,       585,
   72.0896,       645,
   72.1098,       617,
     72.13,       590,
   72.1501,       635,
   72.1703,       600,
   72.1905,       606,
   72.2106,       636,
   72.2308,       663,
    72.251,       622,
   72.2711,       640,
   72.2913,       584,
   72.3115,       633,
   72.3316,       643,
   72.3518,       621,
    72.372,       614,
   72.3921,       654,
   72.4123,       588,
   72.4325,       652,
   72.4526,       607,
   72.4728,       593,
    72.493,       677,
   72.5132,       612,
   72.5333,       647,
   72.5535,       626,
   72.5737,       607,
   72.5938,       616,
    72.614,       620,
   72.6342,       628,
   72.6543,       676,
   72.6745,       623,
   72.6947,       621,
   72.7148,       623,
    72.735,       660,
   72.7552,       614,
   72.7753,       640,
   72.7955,       662,
   72.8157,       582,
   72.8358,       643,
    72.856,       627,
   72.8762,       607,
   72.8964,       608,
   72.9165,       646,
   72.9367,       602,
   72.9569,       632,
    72.977,       646,
   72.9972,       611,
   73.0174,       653,
   73.0375,       652,
   73.0577,       650,
   73.0779,       644,
    73.098,       628,
   73.1182,       652,
   73.1384,       662,
   73.1585,       680,
   73.1787,       623,
   73.1989,       636,
   73.2191,       607,
   73.2392,       614,
   73.2594,       597,
   73.2796,       622,
   73.2997,       643,
   73.3199,       638,
   73.3401,       639,
   73.3602,       644,
   73.3804,       659,
   73.4006,       627,
   73.4207,       644,
   73.4409,       641,
   73.4611,       677,
   73.4812,       652,
   73.5014,       684,
   73.5216,       661,
   73.5417,       661,
   73.5619,       685,
   73.5821,       643,
   73.6023,       668,
   73.6224,       680,
   73.6426,       729,
   73.6628,       716,
   73.6829,       703,
   73.7031,       720,
   73.7233,       711,
   73.7434,       780,
   73.7636,       800,
   73.7838,       851,
   73.8039,       831,
   73.8241,       839,
   73.8443,       831,
   73.8644,       865,
   73.8846,       846,
   73.9048,       931,
   73.9249,       880,
   73.9451,       954,
   73.9653,       996,
   73.9855,      1069,
   74.0056,      1160,
   74.0258,      1302,
    74.046,      1516,
   74.0661,      1981,
   74.0863,      2544,
   74.1065,      3974,
   74.1266,      6492,
   74.1468,     10204,
    74.167,     12521,
   74.1871,     11191,
   74.2073,      7468,
   74.2275,      4597,
   74.2476,      3039,
   74.2678,      2353,
    74.288,      2104,
   74.3082,      2371,
   74.3283,      3163,
   74.3485,      4508,
   74.3687,      5885,
   74.3888,      6574,
    74.409,      5666,
   74.4292,      3765,
   74.4493,      2455,
   74.4695,      1765,
   74.4897,      1403,
   74.5098,      1204,
     74.53,      1014,
   74.5502,       939,
   74.5703,       919,
   74.5905,       817,
   74.6107,       857,
   74.6308,       807,
    74.651,       775,
   74.6712,       798,
   74.6914,       770,
   74.7115,       755,
   74.7317,       756,
   74.7519,       754,
    74.772,       734,
   74.7922,       711,
   74.8124,       718,
   74.8325,       697,
   74.8527,       657,
   74.8729,       647,
    74.893,       655,
   74.9132,       675,
   74.9334,       685,
   74.9535,       655,
   74.9737,       675,
   74.9939,       680,
    75.014,       698,
   75.0342,       644,
   75.0544,       653,
   75.0746,       647,
   75.0947,       665,
   75.1149,       645,
   75.1351,       646,
   75.1552,       651,
   75.1754,       647,
   75.1956,       605,
   75.2157,       628,
   75.2359,       643,
   75.2561,       632,
   75.2762,       635,
   75.2964,       649,
   75.3166,       655,
   75.3367,       646,
   75.3569,       688,
   75.3771,       642,
   75.3973,       647,
   75.4174,       661,
   75.4376,       610,
   75.4578,       667,
   75.4779,       635,
   75.4981,       623,
   75.5183,       669,
   75.5384,       606,
   75.5586,       621,
   75.5788,       635,
   75.5989,       654,
   75.6191,       636,
   75.6393,       643,
   75.6594,       639,
   75.6796,       633,
   75.6998,       617,
   75.7199,       617,
   75.7401,       668,
   75.7603,       609,
   75.7805,       642,
   75.8006,       647,
   75.8208,       584,
    75.841,       647,
   75.8611,       615,
   75.8813,       591,
   75.9015,       630,
   75.9216,       571,
   75.9418,       633,
    75.962,       645,
   75.9821,       608,
   76.0023,       634,
   76.0225,       677,
   76.0426,       597,
   76.0628,       607,
    76.083,       636,
   76.1032,       605,
   76.1233,       609,
   76.1435,       629,
   76.1637,       632,
   76.1838,       631,
    76.204,       600,
   76.2242,       631,
   76.2443,       603,
   76.2645,       646,
   76.2847,       641,
   76.3048,       646,
    76.325,       638,
   76.3452,       607,
   76.3653,       653,
   76.3855,       632,
   76.4057,       599,
   76.4258,       612,
    76.446,       603,
   76.4662,       587,
   76.4864,       611,
   76.5065,       636,
   76.5267,       607,
   76.5469,       630,
    76.567,       626,
   76.5872,       582,
   76.6074,       592,
   76.6275,       625,
   76.6477,       616,
   76.6679,       613,
    76.688,       594,
   76.7082,       599,
   76.7284,       581,
   76.7485,       642,
   76.7687,       622,
   76.7889,       604,
    76.809,       595,
   76.8292,       629,
   76.8494,       642,
   76.8696,       630,
   76.8897,       624,
   76.9099,       617,
   76.9301,       641,
   76.9502,       625,
   76.9704,       588,
   76.9906,       635,
   77.0107,       589,
   77.0309,       678,
   77.0511,       614,
   77.0712,       629,
   77.0914,       614,
   77.1116,       638,
   77.1317,       678,
   77.1519,       598,
   77.1721,       648,
   77.1923,       637,
   77.2124,       567,
   77.2326,       655,
   77.2528,       618,
   77.2729,       638,
   77.2931,       608,
   77.3133,       632,
   77.3334,       623,
   77.3536,       619,
   77.3738,       627,
   77.3939,       626,
   77.4141,       602,
   77.4343,       597,
   77.4544,       573,
   77.4746,       604,
   77.4948,       575,
   77.5149,       598,
   77.5351,       575,
   77.5553,       596,
   77.5755,       611,
   77.5956,       585,
   77.6158,       632,
    77.636,       595,
   77.6561,       602,
   77.6763,       588,
   77.6965,       631,
   77.7166,       647,
   77.7368,       644,
    77.757,       617,
   77.7771,       622,
   77.7973,       592,
   77.8175,       625,
   77.8376,       646,
   77.8578,       603,
    77.878,       626,
   77.8981,       599,
   77.9183,       620,
   77.9385,       603,
   77.9587,       665,
   77.9788,       602,
    77.999,       623,
