;RAW4.00
[RawHeader]
Date=11/25/2025
EstimatedTotalTime=426.6
FurtherDQLReading=0
HardwareIndicator=65519
MeasuredTotalTime=4.29314
MeasurementFlag=1
NumberOfMeasuredRanges=1
NumberOfRanges=1
Time=23:29:34

[VarInfo]
Type=USER
Flags=0
Value=Lab Manager

[VarInfo]
Type=SAMPLEID
Flags=0
Value=Commander Sample ID

[VarInfo]
Type=COMMENT
Flags=0
Value=

[VarInfo]
Type=UTF
Flags=0
Value=

[VarInfo]
Type=CREATOR
Flags=0
Value=V5Converter

[VarInfo]
Type=CREATOR_VERSION
Flags=0
Value=4.4.16.0

[HardwareConfiguration]
AbsorptionFactor=9999
ActivateAbsorber=0
Alpha1=1.5406
Alpha2=1.54439
AlphaAverage=1.54184
AlphaRatio=0.5
Analyzer=0
Anode=Cu
AntiScatteringSlit=9999
BeamOpticsFlags=0
Beta=1.39222
BetaRelativeIntensity=0
DeactivateAbsorber=0
DetectorSlit=9999
DivergenceSlit=9999
GoniometerControl=0
GoniometerDiameter=282
GoniometerModel=256
GoniometerStage=7
Monochromator=0
NearSampleSlit=9999
PrimarySollerSlit=9999
SampleChanger=0
SecondSollerSlit=9999
SynchronousAxis=0
ThinFilmAttachment=9999
WaveUnit=A

[RangeHeader]
ActuallyUsedLambda=1.54184
AdditionalDetectorMask=257
DataRecordLength=4
DelayTime=0
DisplayPlaneNumber=0
EstimatedScanTime=427
ExtraParametersMask=0
GeneratorCurrent=10
GeneratorVoltage=30
Increment=0.0201685
Increment3=0
NumberOfCompletedData=1885
NumberOfCounts=1
NumberOfDetectors=0
NumberOfDrives=3
NumberOfEncoderDrives=0
NumberOfMeasuredData=1885
NumberOfVaryingParameters=0
RangeStartTime=0
RotationSpeed=0
ScanMode=1
ScanType=Locked Coupled
SimulatedMeasConditions=0
SlitChangerIn=0
SmootingWidth=0
Start=40.0015
Steps=1885
SynchronousRotation=0
Time=33

[VarInfo]
Type=PSD_DISCRIM
Flags=0
Value=0.11;0.5

[VarInfo]
Type=OPTICS_V5
Flags=0
Value=H4sIAAAAAAAEAO1d63KjOhJ+Fda/zqmtBIPtXKaITzm2J+OaOHbFTnKmtrZcBORYZzC4AOey//d99hl2X2x1QViIS8C3JBN+TCaodWm6+2vUUkfS/nieW9IjcD3o2GcV5bBakYBtOCa0H84qS396oBxV/mhqF44NnTnwgdt25gvHBrbf0X1dQq1t78uzB88qM99ffJHlp6enw6faoeM+yGq1qsh/9i9HxgzM9QNoe75uG6AStjJfb1WRbqEH7y1wpc/BWWXFR0joAM9w4cInL/Bj4UHLsSW+3oXrLBc9NBZ6t3Pgojcb3P8FDH+o+7OzitwBj9AAMt+CrxUfl1Lblu55QRehTORzoM8XqLDt2L4ObeBy/coBc6yHluEvdYtxoR6o1ePT02O5h8TkLue4tzhrTW2EZGjqqBswQr3oFvyXjl+9OdUtD2hyGln7c259hcAyrwHqHhq4EDFpA/KbJ8lNjfKD1ToCFipvdm00JDA1OUbR6Btwou9Ab2HpL824AjQ5tXK8m+bF4OrHhPzodEft64TGrBVWDOsoPhpP1bBWhrxWvISy1r0hIUP+4r8skMLHrm78xG8sGODQhXPdfSHkZBMMakgD9GxISBvSeHkPOIFIQeOidilHx44baRI9r5mSRmyEDSxUYBJZ3blu/xy4JnCvAfYzAL0wsdX3b8s5NVnMwIfj6+8T9KPV/l7IxHm5Jhp5z0OvBh9BE+kGCS98DAk920dCZMIVSikeHA9SJulgmhwp1bAq2ZMXfZT4B2LSAxc+QFu3ogSlwl6OWi7Ssb/0moPwnSLFGmsYPPedJdIj0qJQrgWE0MJ5JCOdEXICmjFtjmnJUA7J0tRxpRHQLUBtYA3AytxYcejGiMm4JZa46kmmLG0LrhEWBa3xcus++8A2MZDfDYZpCWdMkQKtj5nwHfcltGVFk+OFGseMJxH2qHoYWND7cnJosmJN5ku1uCnh1+H65qyTKx3Y545jAR1NEG5s6BPpdiDSG56bXcI59IlYwiKvWdVk7knrgKm+tPxb3VoCboigVyQ96CPXTshnFewlKri/oQta5l9LD8GnYEuZYx67mbHTJoqe6ZblPK0cjVCOarZnwPgJzFUVVqC1ESPOHKsWvx33pNH5Zl7erhEyxkg2xVq1lr7TdoHug6HrLIDrvzAWEyiR9/eIRfdMhLKr5fweuE21rslCEdaQRS08UPF//xMyUSUc9B0TNG8Quqbos4xMnTwz90Y+PzEHluy7tuWt5HgP/ND5vNXOHBXjLvaN2aNbYuh5A79Evm3IJvErCL6JJ23LP418rD3OPSHRTOHDEjnla/gw85sIdabECnU0BoKwUKWYS+vrz5fAfvBnTbXRwKJhj2nOjrJISkNktZevObqMVm/q5DL4SnFwGS02cm5pFninPwKqkpa1mOmKYIUieVuWOJh2nCVqyWzxf//ehzWm2Nxw9uJBQ7dIeQJnTA/KYaNePXrNFtfo7ca2MPfItOjcf/WMZelYS+paugfVBtErK9H60Ibz5bx5oBwenx4fndaUWv3kSK0pjePu32vVE4S4oAZGIvklvWZQ4W0Rs4b0UpC0Rk/7QJiajTD10yOsXjvdJsRYdyXGNhLfFkDGuto1yh6Bqz+IoV6M/ulxppzUt4kz1l2Js43EtwWcsa52jLNz4OupIMPET46w2qmqqttD2Kq7EmEbiW9jhK262jHCrvGaRirECHVXGHuvCFutth02NsJWrKMSVWsKbh08xTrZCZK+OsbSG7gQ2D5ZHRSgJJK3tspG1g4H057tH9XfH6CibEVXr/OjKbkXhfRCBYDfqOeDOWLs0nmABl3VvJn0rm5bl73OpP2tN9TkFYkJfAye/WbPftQtiMQzg4uVjCJaIvW07+CFjI1lEf6uyTEWsnm67F2lsnIJbSARW0kbWtlk6OEgY+yhA20/e3B1k8GZLoaD0auqCHeKD6S58wgk35HmwJjpNrYKCTmTxd/SeKxl8/ienF2WXefzdFk9bOTm6N5Lz546UqiqhAVciZbr3FOQY3BWIVUkVBrdJr+ZtC6H31rRcrGRhEeyyEjkXXKxo0bYURPZUVPYUbPYUQuzEywL8PxEyoQBQloib5PW7UUWe0HrokySmCrg8D78PeybkkWGzrvjVjIvuH4+FiIbUQEDqBXeyxN46LJSkY3uZbffvRqnSMV2TCAFbaXVSDlkQmfBvNq4EkHsASVZZdetcW+QpTTSOp+8YlOLgL9pYnk4ToQicvl10J4MrpMZJONJkeZyfMe6Ed+xvgA2skTfcYU8TFacvPmcsQFLZ8dr7r82tXQiP3O7dSw/voYXlO4q5vl5u6WEjcypLxqFfRNqVSHyCL4FKaFHctihVBMCjFp1f7FErbF+MBEXRsEvZLo55TW19tJ1sT+LmlpQuitTm7f2YWpolHD6sQ1TaySFsh/E0uKy2LulDZ0nkgHOmxQp25WV3aUEnW+xcHMnRJr5lluqhymm+EkWW+4491hde7Ul3ssWbV9+7YtfJA0UTQyNGXBfyVbbPA8ud74bklUw60j9YgWfilQ/I4dzraYmBmuZ2QhiKJW9qxqLdLI3h6IxR/YytzAXT1vD42MIIXVJnC4nR8cylyaJ7OZRhxZeJcCPHu2eWH2ZQFkmUJYJlGUCZZlA+fE2xcsEyvezJV4mUP6aCCsTKN8TxsoEyl8VZ2UC5XvCWZlA+ashrEygfE8IKxMoywTKMoGyTKAsEyjLBMoygbJMoCwTKMsEyjKBskygLBMoywTKMoGyTKAsEyjLBMoygbJMoHzr+KNMoCwTKD9tAiXLkUS/iumT7KzT+Cmg4tm7GScqd+cL/4UkG4arGcVOT+72h4PRhP4scnoyGTg0xcTzk2U+BzLzcGMl7XBjde+HGw8WbefceR5MR45lATfhiGNKyDjkmKsg/WbotmTQQ8ElNJZEifQE7N/XgX9k+LhXSSBnuYaE6hunwkb7FPSZfOxxRGTIPPKL8PePe2KymphYK0bAR+scevtxXAin6Q2diJrmRGpv50S+wmdgEkNlcw/RmVjQz3IliCz1U2CAaRv4kdXICV5EJGb6ELHy5h6E61FQZYr/YA2o98gntQ/sOmq5XMfxeudlE7OmVzSsTJpYMhZe0hcRy1SR/jGf/zPDjH/DR/7fA2QfErQ9hAVgol98R9I5hWWaMq5mhBds4KeJUp0oaQYcIb5mwIVtN52ZmPP5qH/5US30lx930PRnYm4HLtvZktP8/WxBxzgL44DNsuvjPeVdZqh+7nWGuODWWWeI97KTtI5vABumgB1a+LnBszXslNBZz+i3gpzt3wSirjOzGenzhQXuZgBYY/QC/KUgIkkjH65UJ0ChmfamMj+F+lCxGJtFbxiJ1dIisfpGkRjhMR6HvT9h3thLD5hkeHHgLInKwm1g17oJl16CldWVYB+fXrg3mE494KdZfesZevz3Iay2B1ceYybnbh1ywVU1LSlVPTypn6qNRkNN8LvHjcOTRv24dqQqvK8VhNAM7mETbitc+w7DEUCRgJl9i2FYh7v9roNCXwNnMmzhLkORh4SYKLFGsfsMwz42ifVFRj70nYaF9FrM/4zwzYaj4jcbRuW787sNw+F2cbvhyRss3uHlOks3wMyxzMQtgMsX+xm8pBxzcfnj6s/ujy654bCjSsOZ7olX4OYEsRyOEwezQMpa3mDWKOO8X3k4Wj2jProvYAvX6KYzLmrzl7v28CTPUlxNiU9Yi8wL0ecUu0XdWrmWfniNJk2pxn6HJHazGl4xZ9PpjyfkXwFHw4ba6R6gstmscZebgP09bgIKCIswkLYN2N/zNmAmj6JSs3YC+59rJ1Cp53Ii1c+wFVhGSkUjpbRAqXF4dHrSUJRqPWmBqqEcHldP68dqfQeB0sontAHGieA9hcKI4+SmzLSadMAw70kjnLfkkW8dVkPLMIDnOS4E3hoRE+Mi7j2jlLwRUvyl1/ekrIcPHRqtqcpiLudicNWekB9FHA7lZ+eh0Ri4qHQnkdHp3mdFwxkkShPAfO0EGXBRYgTUqKlErdE1Wb0CGJXZGHSdNqGDKCsJ1TJnP6vqMuJUZpxuDuAUxgVFpsREEgUYMFu+rxszPNBZ5WDPRwluc5pzmitr4SQ+y+l5TBQhKMMCjfMcZLfIWj48ALPjYkzSv8ZE3eHvWs9sIu2S3oNHTCEVRwtgwGnwt6KsUpyC4BLvvcgEK46DYs5u+K03mpAfRZxdFKHbnGBVi0yvQisOP5lEYfRDEPwf22IqXU7pckqXI7qcECvsd+8VLsZPznhGTjB6jZVIzZz8ZA+dc9yig6ZEJvFifFQxXo8YAd9H0PIkfi6GHAXNPKxILbzB7vVR6AbplI5NtLGOuVT/5i2e1Rn4EFu+VFtBkewhB6uqmiyUa3yqI/WAkWUTj/6JxSqYYK6D6Pv/u9RXv2COAAA=

[PSD]
ActualTwoTheta=9999
FirstUsedChannel=0
FixedPSD=0
PSDOpening=4.99171
PSDType=5

[Drive]
DriveFlags=1
DriveName=2Theta
DriveNumber=2
DriveOffset=0
OffsetIndex=0
OscillationAmplitude=0
OscillationSpeed=0
StartPosition=40.0015

[Drive]
DriveFlags=1
DriveName=Theta
DriveNumber=1
DriveOffset=0
OffsetIndex=0
OscillationAmplitude=0
OscillationSpeed=0
StartPosition=20.0007

[Drive]
DriveFlags=1
DriveName=Phi
DriveNumber=3
DriveOffset=0
OffsetIndex=0
OscillationAmplitude=0
OscillationSpeed=0
StartPosition=0

[Data]
     Angle,       PSD,
   40.0015,       647,
   40.0217,       618,
   40.0418,       617,
    40.062,       628,
   40.0822,       628,
   40.1023,       603,
   40.1225,       647,
   40.1427,       663,
   40.1628,       655,
    40.183,       678,
   40.2032,       617,
   40.2233,       630,
   40.2435,       629,
   40.2637,       619,
   40.2838,       674,
    40.304,       658,
   40.3242,       638,
   40.3444,       606,
   40.3645,       613,
   40.3847,       640,
   40.4049,       667,
    40.425,       625,
   40.4452,       644,
   40.4654,       660,
   40.4855,       675,
   40.5057,       631,
   40.5259,       614,
    40.546,       630,
   40.5662,       593,
   40.5864,       579,
   40.6065,       709,
   40.6267,       627,
   40.6469,       651,
   40.6671,       679,
   40.6872,       616,
   40.7074,       660,
   40.7276,       646,
   40.7477,       643,
   40.7679,       693,
   40.7881,       716,
   40.8082,       679,
   40.8284,       694,
   40.8486,       651,
   40.8687,       614,
   40.8889,       682,
   40.9091,       696,
   40.9292,       694,
   40.9494,       690,
   40.9696,       717,
   40.9897,       702,
   41.0099,       681,
   41.0301,       632,
   41.0503,       630,
   41.0704,       650,
   41.0906,       618,
   41.1108,       701,
   41.1309,       684,
   41.1511,       662,
   41.1713,       690,
   41.1914,       691,
   41.2116,       674,
   41.2318,       692,
   41.2519,       635,
   41.2721,       668,
   41.2923,       676,
   41.3124,       652,
   41.3326,       674,
   41.3528,       678,
   41.3729,       695,
   41.3931,       694,
   41.4133,       717,
   41.4335,       716,
   41.4536,       731,
   41.4738,       646,
    41.494,       675,
   41.5141,       722,
   41.5343,       701,
   41.5545,       686,
   41.5746,       699,
   41.5948,       699,
    41.615,       657,
   41.6351,       749,
   41.6553,       780,
   41.6755,       762,
   41.6956,       724,
   41.7158,       739,
    41.736,       701,
   41.7562,       702,
   41.7763,       754,
   41.7965,       767,
   41.8167,       718,
   41.8368,       792,
    41.857,       777,
   41.8772,       836,
   41.8973,       842,
   41.9175,       806,
   41.9377,       814,
   41.9578,       845,
    41.978,       868,
   41.9982,       807,
   42.0183,       832,
   42.0385,       830,
   42.0587,       813,
   42.0788,       810,
    42.099,       843,
   42.1192,       794,
   42.1394,       826,
   42.1595,       907,
   42.1797,       878,
   42.1999,       896,
     42.22,       898,
   42.2402,       881,
   42.2604,       888,
   42.2805,       866,
   42.3007,       927,
   42.3209,       958,
    42.341,       952,
   42.3612,       913,
   42.3814,       944,
   42.4015,       930,
   42.4217,       910,
   42.4419,       963,
    42.462,       938,
   42.4822,       997,
   42.5024,      1012,
   42.5226,      1012,
   42.5427,      1017,
   42.5629,      1050,
   42.5831,      1033,
   42.6032,      1108,
   42.6234,      1083,
   42.6436,      1147,
   42.6637,      1178,
   42.6839,      1229,
   42.7041,      1151,
   42.7242,      1253,
   42.7444,      1301,
   42.7646,      1316,
   42.7847,      1378,
   42.8049,      1382,
   42.8251,      1600,
   42.8453,      1560,
   42.8654,      1698,
   42.8856,      1861,
   42.9058,      1886,
   42.9259,      1942,
   42.9461,      2160,
   42.9663,      2279,
   42.9864,      2563,
   43.0066,      2749,
   43.0268,      3003,
   43.0469,      3317,
   43.0671,      3730,
   43.0873,      4134,
   43.1074,      4697,
   43.1276,      5374,
   43.1478,      6231,
   43.1679,      7476,
   43.1881,      8569,
   43.2083,     10169,
   43.2285,     11844,
   43.2486,     13428,
   43.2688,     15542,
    43.289,     16971,
   43.3091,     17428,
   43.3293,     17006,
   43.3495,     15959,
   43.3696,     15478,
   43.3898,     14783,
     43.41,     13998,
   43.4301,     12580,
   43.4503,     11063,
   43.4705,      9659,
   43.4906,      8337,
   43.5108,      7176,
    43.531,      6275,
   43.5511,      5340,
   43.5713,      4729,
   43.5915,      4271,
   43.6117,      3761,
   43.6318,      3344,
    43.652,      3003,
   43.6722,      2773,
   43.6923,      2529,
   43.7125,      2411,
   43.7327,      2210,
   43.7528,      2016,
    43.773,      1904,
   43.7932,      1779,
   43.8133,      1724,
   43.8335,      1655,
   43.8537,      1540,
   43.8738,      1442,
    43.894,      1385,
   43.9142,      1361,
   43.9344,      1335,
   43.9545,      1252,
   43.9747,      1303,
   43.9949,      1313,
    44.015,      1235,
   44.0352,      1199,
   44.0554,      1218,
   44.0755,      1116,
   44.0957,      1079,
   44.1159,      1023,
    44.136,      1059,
   44.1562,      1067,
   44.1764,      1022,
   44.1965,       982,
   44.2167,       983,
   44.2369,      1005,
    44.257,      1057,
   44.2772,       957,
   44.2974,       954,
   44.3176,       961,
   44.3377,       944,
   44.3579,       887,
   44.3781,       959,
   44.3982,       919,
   44.4184,       899,
   44.4386,       873,
   44.4587,       931,
   44.4789,       888,
   44.4991,       868,
   44.5192,       847,
   44.5394,       868,
   44.5596,       934,
   44.5797,       862,
   44.5999,       895,
   44.6201,       894,
   44.6402,       856,
   44.6604,       869,
   44.6806,       870,
   44.7008,       880,
   44.7209,       869,
   44.7411,       799,
   44.7613,       879,
   44.7814,       826,
   44.8016,       904,
   44.8218,       836,
   44.8419,       785,
   44.8621,       880,
   44.8823,       825,
   44.9024,       794,
   44.9226,       819,
   44.9428,       807,
   44.9629,       819,
   44.9831,       772,
   45.0033,       794,
   45.0235,       803,
   45.0436,       776,
   45.0638,       749,
    45.084,       785,
   45.1041,       806,
   45.1243,       762,
   45.1445,       731,
   45.1646,       772,
   45.1848,       785,
    45.205,       775,
   45.2251,       840,
   45.2453,       825,
   45.2655,       776,
   45.2856,       789,
   45.3058,       736,
    45.326,       794,
   45.3461,       746,
   45.3663,       831,
   45.3865,       776,
   45.4067,       809,
   45.4268,       751,
    45.447,       783,
   45.4672,       783,
   45.4873,       821,
   45.5075,       767,
   45.5277,       709,
   45.5478,       773,
    45.568,       739,
   45.5882,       753,
   45.6083,       753,
   45.6285,       746,
   45.6487,       779,
   45.6688,       748,
    45.689,       773,
   45.7092,       784,
   45.7294,       758,
   45.7495,       723,
   45.7697,       741,
   45.7899,       752,
     45.81,       762,
   45.8302,       750,
   45.8504,       762,
   45.8705,       763,
   45.8907,       734,
   45.9109,       781,
    45.931,       731,
   45.9512,       782,
   45.9714,       763,
   45.9915,       759,
   46.0117,       738,
   46.0319,       744,
    46.052,       779,
   46.0722,       709,
   46.0924,       731,
   46.1126,       698,
   46.1327,       705,
   46.1529,       753,
   46.1731,       748,
   46.1932,       735,
   46.2134,       721,
   46.2336,       733,
   46.2537,       735,
   46.2739,       723,
   46.2941,       755,
   46.3142,       746,
   46.3344,       747,
   46.3546,       785,
   46.3747,       741,
   46.3949,       714,
   46.4151,       714,
   46.4352,       742,
   46.4554,       731,
   46.4756,       708,
   46.4958,       768,
   46.5159,       699,
   46.5361,       691,
   46.5563,       698,
   46.5764,       745,
   46.5966,       717,
   46.6168,       730,
   46.6369,       733,
   46.6571,       732,
   46.6773,       716,
   46.6974,       720,
   46.7176,       744,
   46.7378,       696,
   46.7579,       717,
   46.7781,       739,
   46.7983,       721,
   46.8185,       665,
   46.8386,       783,
   46.8588,       713,
    46.879,       721,
   46.8991,       706,
   46.9193,       677,
   46.9395,       715,
   46.9596,       706,
   46.9798,       716,
        47,       692,
   47.0201,       710,
   47.0403,       691,
   47.0605,       701,
   47.0806,       711,
   47.1008,       711,
    47.121,       693,
   47.1411,       751,
   47.1613,       707,
   47.1815,       728,
   47.2017,       695,
   47.2218,       705,
    47.242,       689,
   47.2622,       708,
   47.2823,       696,
   47.3025,       706,
   47.3227,       681,
   47.3428,       705,
    47.363,       676,
   47.3832,       687,
   47.4033,       689,
   47.4235,       701,
   47.4437,       761,
   47.4638,       716,
    47.484,       700,
   47.5042,       690,
   47.5243,       655,
   47.5445,       717,
   47.5647,       726,
   47.5849,       714,
    47.605,       721,
   47.6252,       718,
   47.6454,       712,
   47.6655,       681,
   47.6857,       680,
   47.7059,       674,
    47.726,       720,
   47.7462,       692,
   47.7664,       713,
   47.7865,       729,
   47.8067,       684,
   47.8269,       733,
    47.847,       697,
   47.8672,       737,
   47.8874,       692,
   47.9076,       689,
   47.9277,       696,
   47.9479,       756,
   47.9681,       733,
   47.9882,       726,
   48.0084,       698,
   48.0286,       743,
   48.0487,       755,
   48.0689,       694,
   48.0891,       664,
   48.1092,       736,
   48.1294,       711,
   48.1496,       702,
   48.1697,       692,
   48.1899,       702,
   48.2101,       731,
   48.2302,       693,
   48.2504,       744,
   48.2706,       759,
   48.2908,       787,
   48.3109,       687,
   48.3311,       759,
   48.3513,       708,
   48.3714,       766,
   48.3916,       654,
   48.4118,       690,
   48.4319,       720,
   48.4521,       752,
   48.4723,       773,
   48.4924,       761,
   48.5126,       773,
   48.5328,       785,
   48.5529,       765,
   48.5731,       734,
   48.5933,       738,
   48.6134,       742,
   48.6336,       768,
   48.6538,       756,
    48.674,       777,
   48.6941,       760,
   48.7143,       738,
   48.7345,       741,
   48.7546,       722,
   48.7748,       804,
    48.795,       761,
   48.8151,       785,
   48.8353,       699,
   48.8555,       763,
   48.8756,       775,
   48.8958,       758,
    48.916,       764,
   48.9361,       774,
   48.9563,       800,
   48.9765,       731,
   48.9967,       779,
   49.0168,       727,
    49.037,       786,
   49.0572,       757,
   49.0773,       820,
   49.0975,       802,
   49.1177,       829,
   49.1378,       813,
    49.158,       810,
   49.1782,       773,
   49.1983,       850,
   49.2185,       814,
   49.2387,       813,
   49.2588,       823,
    49.279,       826,
   49.2992,       834,
   49.3193,       857,
   49.3395,       847,
   49.3597,       814,
   49.3799,       850,
      49.4,       873,
   49.4202,       857,
   49.4404,       847,
   49.4605,       852,
   49.4807,       885,
   49.5009,       948,
    49.521,       860,
   49.5412,       917,
   49.5614,       933,
   49.5815,       931,
   49.6017,       956,
   49.6219,       957,
    49.642,       963,
   49.6622,       965,
   49.6824,       985,
   49.7025,       975,
   49.7227,      1006,
   49.7429,      1046,
   49.7631,      1046,
   49.7832,      1123,
   49.8034,      1110,
   49.8236,      1114,
   49.8437,      1131,
   49.8639,      1210,
   49.8841,      1281,
   49.9042,      1273,
   49.9244,      1329,
   49.9446,      1423,
   49.9647,      1479,
   49.9849,      1502,
   50.0051,      1601,
   50.0252,      1703,
   50.0454,      1716,
   50.0656,      1798,
   50.0858,      1890,
   50.1059,      2048,
   50.1261,      2218,
   50.1463,      2227,
   50.1664,      2371,
   50.1866,      2544,
   50.2068,      2682,
   50.2269,      2811,
   50.2471,      2899,
   50.2673,      3226,
   50.2874,      3246,
   50.3076,      3475,
   50.3278,      3611,
   50.3479,      3773,
   50.3681,      4000,
   50.3883,      4190,
   50.4084,      4365,
   50.4286,      4470,
   50.4488,      4337,
    50.469,      4237,
   50.4891,      4284,
   50.5093,      4080,
   50.5295,      3861,
   50.5496,      3967,
   50.5698,      3791,
     50.59,      3619,
   50.6101,      3324,
   50.6303,      3266,
   50.6505,      2984,
   50.6706,      2738,
   50.6908,      2697,
    50.711,      2472,
   50.7311,      2391,
   50.7513,      2238,
   50.7715,      2154,
   50.7917,      1907,
   50.8118,      1904,
    50.832,      1769,
   50.8522,      1705,
   50.8723,      1579,
   50.8925,      1556,
   50.9127,      1454,
   50.9328,      1446,
    50.953,      1359,
   50.9732,      1306,
   50.9933,      1216,
   51.0135,      1242,
   51.0337,      1186,
   51.0538,      1113,
    51.074,      1103,
   51.0942,      1020,
   51.1143,       974,
   51.1345,       997,
   51.1547,       951,
   51.1749,       956,
    51.195,       980,
   51.2152,       929,
   51.2354,       933,
   51.2555,       923,
   51.2757,       920,
   51.2959,       841,
    51.316,       871,
   51.3362,       836,
   51.3564,       843,
   51.3765,       859,
   51.3967,       829,
   51.4169,       845,
    51.437,       841,
   51.4572,       779,
   51.4774,       808,
   51.4975,       825,
   51.5177,       837,
   51.5379,       777,
   51.5581,       741,
   51.5782,       791,
   51.5984,       798,
   51.6186,       749,
   51.6387,       770,
   51.6589,       761,
   51.6791,       751,
   51.6992,       759,
   51.7194,       729,
   51.7396,       768,
   51.7597,       728,
   51.7799,       732,
   51.8001,       690,
   51.8202,       742,
   51.8404,       716,
   51.8606,       719,
   51.8808,       770,
   51.9009,       749,
   51.9211,       717,
   51.9413,       702,
   51.9614,       722,
   51.9816,       716,
   52.0018,       688,
   52.0219,       741,
   52.0421,       615,
   52.0623,       690,
   52.0824,       746,
   52.1026,       757,
   52.1228,       705,
   52.1429,       704,
   52.1631,       702,
   52.1833,       692,
   52.2034,       737,
   52.2236,       671,
   52.2438,       677,
    52.264,       720,
   52.2841,       662,
   52.3043,       666,
   52.3245,       681,
   52.3446,       721,
   52.3648,       671,
    52.385,       682,
   52.4051,       744,
   52.4253,       697,
   52.4455,       668,
   52.4656,       646,
   52.4858,       654,
    52.506,       682,
   52.5261,       698,
   52.5463,       714,
   52.5665,       656,
   52.5866,       692,
   52.6068,       660,
    52.627,       658,
   52.6472,       680,
   52.6673,       689,
   52.6875,       679,
   52.7077,       661,
   52.7278,       666,
    52.748,       689,
   52.7682,       626,
   52.7883,       665,
   52.8085,       666,
   52.8287,       643,
   52.8488,       655,
    52.869,       636,
   52.8892,       657,
   52.9093,       635,
   52.9295,       636,
   52.9497,       670,
   52.9699,       657,
     52.99,       651,
   53.0102,       627,
   53.0304,       668,
   53.0505,       669,
   53.0707,       581,
   53.0909,       679,
    53.111,       670,
   53.1312,       677,
   53.1514,       655,
   53.1715,       612,
   53.1917,       673,
   53.2119,       663,
    53.232,       643,
   53.2522,       657,
   53.2724,       655,
   53.2925,       645,
   53.3127,       664,
   53.3329,       661,
   53.3531,       662,
   53.3732,       641,
   53.3934,       632,
   53.4136,       643,
   53.4337,       652,
   53.4539,       636,
   53.4741,       620,
   53.4942,       667,
   53.5144,       678,
   53.5346,       687,
   53.5547,       676,
   53.5749,       680,
   53.5951,       627,
   53.6152,       696,
   53.6354,       664,
   53.6556,       635,
   53.6757,       630,
   53.6959,       649,
   53.7161,       663,
   53.7363,       644,
   53.7564,       624,
   53.7766,       680,
   53.7968,       604,
   53.8169,       665,
   53.8371,       627,
   53.8573,       618,
   53.8774,       697,
   53.8976,       636,
   53.9178,       693,
   53.9379,       636,
   53.9581,       610,
   53.9783,       609,
   53.9984,       677,
   54.0186,       599,
   54.0388,       665,
    54.059,       618,
   54.0791,       665,
   54.0993,       624,
   54.1195,       642,
   54.1396,       670,
   54.1598,       614,
     54.18,       634,
   54.2001,       614,
   54.2203,       657,
   54.2405,       662,
   54.2606,       665,
   54.2808,       600,
    54.301,       626,
   54.3211,       651,
   54.3413,       655,
   54.3615,       625,
   54.3816,       615,
   54.4018,       603,
    54.422,       671,
   54.4422,       610,
   54.4623,       611,
   54.4825,       605,
   54.5027,       658,
   54.5228,       630,
    54.543,       624,
   54.5632,       647,
   54.5833,       655,
   54.6035,       629,
   54.6237,       618,
   54.6438,       628,
    54.664,       638,
   54.6842,       645,
   54.7043,       651,
   54.7245,       612,
   54.7447,       604,
   54.7648,       619,
    54.785,       675,
   54.8052,       620,
   54.8254,       610,
   54.8455,       611,
   54.8657,       647,
   54.8859,       646,
    54.906,       629,
   54.9262,       629,
   54.9464,       618,
   54.9665,       579,
   54.9867,       624,
   55.0069,       605,
    55.027,       638,
   55.0472,       633,
   55.0674,       633,
   55.0875,       650,
   55.1077,       678,
   55.1279,       664,
   55.1481,       678,
   55.1682,       578,
   55.1884,       612,
   55.2086,       648,
   55.2287,       655,
   55.2489,       641,
   55.2691,       637,
   55.2892,       641,
   55.3094,       636,
   55.3296,       656,
   55.3497,       600,
   55.3699,       664,
   55.3901,       625,
   55.4102,       587,
   55.4304,       616,
   55.4506,       646,
   55.4707,       638,
   55.4909,       679,
   55.5111,       654,
   55.5313,       626,
   55.5514,       687,
   55.5716,       632,
   55.5918,       645,
   55.6119,       634,
   55.6321,       608,
   55.6523,       616,
   55.6724,       658,
   55.6926,       623,
   55.7128,       606,
   55.7329,       645,
   55.7531,       629,
   55.7733,       668,
   55.7934,       632,
   55.8136,       612,
   55.8338,       614,
    55.854,       625,
   55.8741,       598,
   55.8943,       621,
   55.9145,       614,
   55.9346,       646,
   55.9548,       593,
    55.975,       607,
   55.9951,       650,
   56.0153,       639,
   56.0355,       629,
   56.0556,       705,
   56.0758,       629,
    56.096,       619,
   56.1161,       613,
   56.1363,       647,
   56.1565,       638,
   56.1766,       655,
   56.1968,       636,
    56.217,       616,
   56.2372,       652,
   56.2573,       610,
   56.2775,       618,
   56.2977,       652,
   56.3178,       669,
    56.338,       614,
   56.3582,       632,
   56.3783,       631,
   56.3985,       641,
   56.4187,       621,
   56.4388,       630,
    56.459,       604,
   56.4792,       602,
   56.4993,       626,
   56.5195,       617,
   56.5397,       567,
   56.5598,       603,
     56.58,       608,
   56.6002,       607,
   56.6204,       607,
   56.6405,       621,
   56.6607,       631,
   56.6809,       604,
    56.701,       616,
   56.7212,       624,
   56.7414,       622,
   56.7615,       628,
   56.7817,       626,
   56.8019,       606,
    56.822,       639,
   56.8422,       610,
   56.8624,       601,
   56.8825,       620,
   56.9027,       610,
   56.9229,       540,
   56.9431,       634,
   56.9632,       642,
   56.9834,       571,
   57.0036,       612,
   57.0237,       656,
   57.0439,       619,
   57.0641,       582,
   57.0842,       661,
   57.1044,       603,
   57.1246,       670,
   57.1447,       626,
   57.1649,       607,
   57.1851,       585,
   57.2052,       666,
   57.2254,       681,
   57.2456,       623,
   57.2657,       671,
   57.2859,       649,
   57.3061,       655,
   57.3263,       647,
   57.3464,       602,
   57.3666,       660,
   57.3868,       622,
   57.4069,       580,
   57.4271,       582,
   57.4473,       562,
   57.4674,       633,
   57.4876,       658,
   57.5078,       589,
   57.5279,       608,
   57.5481,       657,
   57.5683,       587,
   57.5884,       649,
   57.6086,       622,
   57.6288,       612,
   57.6489,       614,
   57.6691,       591,
   57.6893,       631,
   57.7095,       604,
   57.7296,       656,
   57.7498,       591,
     57.77,       620,
   57.7901,       638,
   57.8103,       665,
   57.8305,       620,
   57.8506,       540,
   57.8708,       612,
    57.891,       616,
   57.9111,       640,
   57.9313,       638,
   57.9515,       606,
   57.9716,       603,
   57.9918,       655,
    58.012,       638,
   58.0322,       588,
   58.0523,       612,
   58.0725,       617,
   58.0927,       629,
   58.1128,       627,
    58.133,       608,
   58.1532,       662,
   58.1733,       593,
   58.1935,       588,
   58.2137,       670,
   58.2338,       606,
    58.254,       580,
   58.2742,       615,
   58.2943,       628,
   58.3145,       668,
   58.3347,       595,
   58.3548,       601,
    58.375,       616,
   58.3952,       577,
   58.4154,       610,
   58.4355,       594,
   58.4557,       643,
   58.4759,       621,
    58.496,       603,
   58.5162,       679,
   58.5364,       604,
   58.5565,       608,
   58.5767,       604,
   58.5969,       649,
    58.617,       644,
   58.6372,       628,
   58.6574,       584,
   58.6775,       625,
   58.6977,       590,
   58.7179,       689,
    58.738,       578,
   58.7582,       604,
   58.7784,       667,
   58.7986,       600,
   58.8187,       605,
   58.8389,       623,
   58.8591,       604,
   58.8792,       625,
   58.8994,       609,
   58.9196,       643,
   58.9397,       608,
   58.9599,       610,
   58.9801,       569,
   59.0002,       569,
   59.0204,       615,
   59.0406,       602,
   59.0607,       608,
   59.0809,       690,
   59.1011,       597,
   59.1213,       602,
   59.1414,       630,
   59.1616,       585,
   59.1818,       628,
   59.2019,       633,
   59.2221,       596,
   59.2423,       603,
   59.2624,       608,
   59.2826,       630,
   59.3028,       606,
   59.3229,       619,
   59.3431,       584,
   59.3633,       628,
   59.3834,       645,
   59.4036,       636,
   59.4238,       638,
   59.4439,       596,
   59.4641,       596,
   59.4843,       613,
   59.5045,       612,
   59.5246,       622,
   59.5448,       635,
    59.565,       593,
   59.5851,       617,
   59.6053,       630,
   59.6255,       596,
   59.6456,       610,
   59.6658,       647,
    59.686,       612,
   59.7061,       592,
   59.7263,       646,
   59.7465,       654,
   59.7666,       637,
   59.7868,       612,
    59.807,       617,
   59.8271,       591,
   59.8473,       596,
   59.8675,       613,
   59.8877,       649,
   59.9078,       580,
    59.928,       616,
   59.9482,       632,
   59.9683,       618,
   59.9885,       618,
   60.0087,       621,
   60.0288,       643,
    60.049,       613,
   60.0692,       630,
   60.0893,       673,
   60.1095,       585,
   60.1297,       597,
   60.1498,       603,
     60.17,       608,
   60.1902,       639,
   60.2104,       583,
   60.2305,       577,
   60.2507,       586,
   60.2709,       636,
    60.291,       596,
   60.3112,       626,
   60.3314,       606,
   60.3515,       645,
   60.3717,       580,
   60.3919,       588,
    60.412,       613,
   60.4322,       612,
   60.4524,       637,
   60.4725,       646,
   60.4927,       595,
   60.5129,       590,
    60.533,       599,
   60.5532,       587,
   60.5734,       619,
   60.5936,       597,
   60.6137,       641,
   60.6339,       674,
   60.6541,       563,
   60.6742,       656,
   60.6944,       591,
   60.7146,       588,
   60.7347,       607,
   60.7549,       642,
   60.7751,       619,
   60.7952,       639,
   60.8154,       613,
   60.8356,       591,
   60.8557,       624,
   60.8759,       625,
   60.8961,       620,
   60.9163,       594,
   60.9364,       633,
   60.9566,       570,
   60.9768,       581,
   60.9969,       612,
   61.0171,       643,
   61.0373,       599,
   61.0574,       644,
   61.0776,       593,
   61.0978,       595,
   61.1179,       617,
   61.1381,       639,
   61.1583,       625,
   61.1784,       587,
   61.1986,       623,
   61.2188,       548,
   61.2389,       596,
   61.2591,       598,
   61.2793,       616,
   61.2995,       617,
   61.3196,       553,
   61.3398,       620,
     61.36,       583,
   61.3801,       611,
   61.4003,       609,
   61.4205,       617,
   61.4406,       587,
   61.4608,       605,
    61.481,       609,
   61.5011,       637,
   61.5213,       597,
   61.5415,       630,
   61.5616,       575,
   61.5818,       579,
    61.602,       597,
   61.6221,       572,
   61.6423,       589,
   61.6625,       618,
   61.6827,       610,
   61.7028,       610,
    61.723,       583,
   61.7432,       610,
   61.7633,       629,
   61.7835,       558,
   61.8037,       615,
   61.8238,       608,
    61.844,       630,
   61.8642,       579,
   61.8843,       620,
   61.9045,       604,
   61.9247,       608,
   61.9448,       622,
    61.965,       626,
   61.9852,       594,
   62.0054,       634,
   62.0255,       640,
   62.0457,       598,
   62.0659,       639,
    62.086,       598,
   62.1062,       602,
   62.1264,       596,
   62.1465,       588,
   62.1667,       558,
   62.1869,       596,
    62.207,       622,
   62.2272,       642,
   62.2474,       634,
   62.2675,       604,
   62.2877,       610,
   62.3079,       615,
    62.328,       622,
   62.3482,       604,
   62.3684,       639,
   62.3886,       612,
   62.4087,       612,
   62.4289,       617,
   62.4491,       603,
   62.4692,       596,
   62.4894,       626,
   62.5096,       606,
   62.5297,       592,
   62.5499,       622,
   62.5701,       616,
   62.5902,       597,
   62.6104,       582,
   62.6306,       610,
   62.6507,       581,
   62.6709,       604,
   62.6911,       639,
   62.7112,       589,
   62.7314,       593,
   62.7516,       573,
   62.7718,       604,
   62.7919,       612,
   62.8121,       589,
   62.8323,       565,
   62.8524,       596,
   62.8726,       616,
   62.8928,       642,
   62.9129,       623,
   62.9331,       587,
   62.9533,       641,
   62.9734,       592,
   62.9936,       589,
   63.0138,       627,
   63.0339,       616,
   63.0541,       599,
   63.0743,       595,
   63.0945,       596,
   63.1146,       601,
   63.1348,       568,
    63.155,       604,
   63.1751,       596,
   63.1953,       603,
   63.2155,       589,
   63.2356,       626,
   63.2558,       588,
    63.276,       656,
   63.2961,       586,
   63.3163,       627,
   63.3365,       601,
   63.3566,       610,
   63.3768,       592,
    63.397,       581,
   63.4171,       606,
   63.4373,       647,
   63.4575,       632,
   63.4777,       552,
   63.4978,       622,
    63.518,       614,
   63.5382,       612,
   63.5583,       621,
   63.5785,       527,
   63.5987,       595,
   63.6188,       589,
    63.639,       636,
   63.6592,       601,
   63.6793,       583,
   63.6995,       602,
   63.7197,       584,
   63.7398,       579,
     63.76,       613,
   63.7802,       585,
   63.8003,       589,
   63.8205,       607,
   63.8407,       643,
   63.8609,       613,
    63.881,       598,
   63.9012,       566,
   63.9214,       591,
   63.9415,       615,
   63.9617,       626,
   63.9819,       571,
    64.002,       608,
   64.0222,       607,
   64.0424,       595,
   64.0625,       570,
   64.0827,       654,
   64.1029,       629,
    64.123,       578,
   64.1432,       623,
   64.1634,       556,
   64.1836,       639,
   64.2037,       590,
   64.2239,       605,
   64.2441,       580,
   64.2642,       606,
   64.2844,       619,
   64.3046,       649,
   64.3247,       614,
   64.3449,       591,
   64.3651,       610,
   64.3852,       608,
   64.4054,       575,
   64.4256,       572,
   64.4457,       620,
   64.4659,       592,
   64.4861,       620,
   64.5062,       598,
   64.5264,       620,
   64.5466,       613,
   64.5668,       622,
   64.5869,       584,
   64.6071,       583,
   64.6273,       616,
   64.6474,       561,
   64.6676,       634,
   64.6878,       598,
   64.7079,       592,
   64.7281,       604,
   64.7483,       602,
   64.7684,       566,
   64.7886,       559,
   64.8088,       632,
   64.8289,       595,
   64.8491,       620,
   64.8693,       553,
   64.8894,       604,
   64.9096,       589,
   64.9298,       592,
     64.95,       585,
   64.9701,       601,
   64.9903,       613,
   65.0105,       607,
   65.0306,       589,
   65.0508,       588,
    65.071,       570,
   65.0911,       626,
   65.1113,       627,
   65.1315,       624,
   65.1516,       579,
   65.1718,       638,
    65.192,       642,
   65.2121,       631,
   65.2323,       582,
   65.2525,       588,
   65.2727,       645,
   65.2928,       566,
    65.313,       605,
   65.3332,       596,
   65.3533,       604,
   65.3735,       634,
   65.3937,       623,
   65.4138,       656,
    65.434,       666,
   65.4542,       629,
   65.4743,       589,
   65.4945,       596,
   65.5147,       563,
   65.5348,       586,
    65.555,       580,
   65.5752,       590,
   65.5953,       574,
   65.6155,       584,
   65.6357,       619,
   65.6559,       568,
    65.676,       584,
   65.6962,       604,
   65.7164,       622,
   65.7365,       633,
   65.7567,       630,
   65.7769,       582,
    65.797,       598,
   65.8172,       589,
   65.8374,       606,
   65.8575,       572,
   65.8777,       603,
   65.8979,       636,
    65.918,       611,
   65.9382,       580,
   65.9584,       568,
   65.9786,       606,
   65.9987,       584,
   66.0189,       626,
   66.0391,       593,
   66.0592,       624,
   66.0794,       588,
   66.0996,       621,
   66.1197,       598,
   66.1399,       631,
   66.1601,       597,
   66.1802,       576,
   66.2004,       599,
   66.2206,       598,
   66.2407,       555,
   66.2609,       605,
   66.2811,       600,
   66.3012,       636,
   66.3214,       606,
   66.3416,       621,
   66.3618,       626,
   66.3819,       598,
   66.4021,       593,
   66.4223,       607,
   66.4424,       588,
   66.4626,       612,
   66.4828,       610,
   66.5029,       582,
   66.5231,       566,
   66.5433,       609,
   66.5634,       617,
   66.5836,       593,
   66.6038,       585,
   66.6239,       641,
   66.6441,       590,
   66.6643,       606,
   66.6844,       614,
   66.7046,       602,
   66.7248,       592,
    66.745,       592,
   66.7651,       636,
   66.7853,       570,
   66.8055,       615,
   66.8256,       553,
   66.8458,       575,
    66.866,       609,
   66.8861,       644,
   66.9063,       617,
   66.9265,       578,
   66.9466,       613,
   66.9668,       635,
    66.987,       611,
   67.0071,       604,
   67.0273,       604,
   67.0475,       603,
   67.0677,       622,
   67.0878,       581,
    67.108,       589,
   67.1282,       553,
   67.1483,       590,
   67.1685,       579,
   67.1887,       570,
   67.2088,       605,
    67.229,       614,
   67.2492,       617,
   67.2693,       580,
   67.2895,       613,
   67.3097,       576,
   67.3298,       605,
     67.35,       615,
   67.3702,       578,
   67.3903,       594,
   67.4105,       566,
   67.4307,       592,
   67.4509,       597,
    67.471,       567,
   67.4912,       568,
   67.5114,       616,
   67.5315,       619,
   67.5517,       604,
   67.5719,       587,
    67.592,       611,
   67.6122,       604,
   67.6324,       542,
   67.6525,       583,
   67.6727,       570,
   67.6929,       553,
    67.713,       575,
   67.7332,       608,
   67.7534,       584,
   67.7735,       616,
   67.7937,       573,
   67.8139,       618,
   67.8341,       604,
   67.8542,       598,
   67.8744,       633,
   67.8946,       603,
   67.9147,       639,
   67.9349,       607,
   67.9551,       586,
   67.9752,       587,
   67.9954,       575,
   68.0156,       577,
   68.0357,       613,
   68.0559,       590,
   68.0761,       594,
   68.0962,       592,
   68.1164,       607,
   68.1366,       586,
   68.1568,       620,
   68.1769,       609,
   68.1971,       614,
   68.2173,       585,
   68.2374,       602,
   68.2576,       614,
   68.2778,       591,
   68.2979,       615,
   68.3181,       589,
   68.3383,       590,
   68.3584,       589,
   68.3786,       603,
   68.3988,       629,
   68.4189,       614,
   68.4391,       571,
   68.4593,       624,
   68.4794,       585,
   68.4996,       566,
   68.5198,       536,
     68.54,       612,
   68.5601,       605,
   68.5803,       604,
   68.6005,       579,
   68.6206,       592,
   68.6408,       574,
    68.661,       590,
   68.6811,       656,
   68.7013,       610,
   68.7215,       613,
   68.7416,       606,
   68.7618,       563,
    68.782,       593,
   68.8021,       558,
   68.8223,       646,
   68.8425,       601,
   68.8626,       547,
   68.8828,       600,
    68.903,       636,
   68.9232,       609,
   68.9433,       652,
   68.9635,       630,
   68.9837,       567,
   69.0038,       597,
    69.024,       586,
   69.0442,       632,
   69.0643,       550,
   69.0845,       610,
   69.1047,       576,
   69.1248,       632,
    69.145,       614,
   69.1652,       587,
   69.1853,       591,
   69.2055,       579,
   69.2257,       549,
   69.2459,       583,
    69.266,       586,
   69.2862,       629,
   69.3064,       608,
   69.3265,       585,
   69.3467,       603,
   69.3669,       631,
    69.387,       581,
   69.4072,       578,
   69.4274,       572,
   69.4475,       583,
   69.4677,       633,
   69.4879,       638,
    69.508,       578,
   69.5282,       578,
   69.5484,       604,
   69.5685,       638,
   69.5887,       581,
   69.6089,       608,
   69.6291,       605,
   69.6492,       658,
   69.6694,       633,
   69.6896,       597,
   69.7097,       616,
   69.7299,       592,
   69.7501,       575,
   69.7702,       610,
   69.7904,       584,
   69.8106,       576,
   69.8307,       592,
   69.8509,       578,
   69.8711,       627,
   69.8912,       608,
   69.9114,       559,
   69.9316,       590,
   69.9517,       579,
   69.9719,       607,
   69.9921,       579,
   70.0123,       612,
   70.0324,       599,
   70.0526,       616,
   70.0728,       603,
   70.0929,       569,
   70.1131,       618,
   70.1333,       607,
   70.1534,       611,
   70.1736,       606,
   70.1938,       607,
   70.2139,       594,
   70.2341,       584,
   70.2543,       586,
   70.2744,       592,
   70.2946,       590,
   70.3148,       569,
    70.335,       641,
   70.3551,       627,
   70.3753,       570,
   70.3955,       587,
   70.4156,       588,
   70.4358,       596,
    70.456,       586,
   70.4761,       580,
   70.4963,       603,
   70.5165,       577,
   70.5366,       561,
   70.5568,       562,
    70.577,       581,
   70.5971,       610,
   70.6173,       611,
   70.6375,       583,
   70.6576,       592,
   70.6778,       588,
    70.698,       647,
   70.7182,       660,
   70.7383,       576,
   70.7585,       574,
   70.7787,       599,
   70.7988,       584,
    70.819,       534,
   70.8392,       610,
   70.8593,       613,
   70.8795,       575,
   70.8997,       642,
   70.9198,       642,
     70.94,       574,
   70.9602,       616,
   70.9803,       606,
   71.0005,       645,
   71.0207,       622,
   71.0409,       608,
    71.061,       576,
   71.0812,       621,
   71.1014,       624,
   71.1215,       612,
   71.1417,       626,
   71.1619,       620,
    71.182,       620,
   71.2022,       591,
   71.2224,       570,
   71.2425,       633,
   71.2627,       579,
   71.2829,       595,
    71.303,       584,
   71.3232,       609,
   71.3434,       614,
   71.3635,       607,
   71.3837,       585,
   71.4039,       643,
   71.4241,       605,
   71.4442,       593,
   71.4644,       647,
   71.4846,       599,
   71.5047,       591,
   71.5249,       579,
   71.5451,       601,
   71.5652,       604,
   71.5854,       585,
   71.6056,       636,
   71.6257,       623,
   71.6459,       579,
   71.6661,       594,
   71.6862,       609,
   71.7064,       602,
   71.7266,       592,
   71.7467,       573,
   71.7669,       624,
   71.7871,       575,
   71.8073,       584,
   71.8274,       575,
   71.8476,       613,
   71.8678,       614,
   71.8879,       624,
   71.9081,       598,
   71.9283,       624,
   71.9484,       584,
   71.9686,       587,
   71.9888,       642,
   72.0089,       603,
   72.0291,       582,
   72.0493,       609,
   72.0694,       605,
   72.0896,       594,
   72.1098,       600,
     72.13,       591,
   72.1501,       646,
   72.1703,       612,
   72.1905,       618,
   72.2106,       558,
   72.2308,       619,
    72.251,       580,
   72.2711,       607,
   72.2913,       601,
   72.3115,       611,
   72.3316,       654,
   72.3518,       588,
    72.372,       647,
   72.3921,       647,
   72.4123,       611,
   72.4325,       627,
   72.4526,       624,
   72.4728,       588,
    72.493,       623,
   72.5132,       629,
   72.5333,       618,
   72.5535,       665,
   72.5737,       653,
   72.5938,       612,
    72.614,       598,
   72.6342,       597,
   72.6543,       663,
   72.6745,       615,
   72.6947,       607,
   72.7148,       625,
    72.735,       587,
   72.7552,       610,
   72.7753,       613,
   72.7955,       622,
   72.8157,       601,
   72.8358,       647,
    72.856,       627,
   72.8762,       607,
   72.8964,       650,
   72.9165,       625,
   72.9367,       628,
   72.9569,       624,
    72.977,       596,
   72.9972,       646,
   73.0174,       624,
   73.0375,       616,
   73.0577,       670,
   73.0779,       636,
    73.098,       640,
   73.1182,       614,
   73.1384,       609,
   73.1585,       639,
   73.1787,       674,
   73.1989,       661,
   73.2191,       626,
   73.2392,       626,
   73.2594,       730,
   73.2796,       647,
   73.2997,       635,
   73.3199,       676,
   73.3401,       733,
   73.3602,       653,
   73.3804,       694,
   73.4006,       684,
   73.4207,       664,
   73.4409,       723,
   73.4611,       681,
   73.4812,       700,
   73.5014,       728,
   73.5216,       733,
   73.5417,       764,
   73.5619,       813,
   73.5821,       752,
   73.6023,       787,
   73.6224,       831,
   73.6426,       821,
   73.6628,       813,
   73.6829,       840,
   73.7031,       863,
   73.7233,       927,
   73.7434,       921,
   73.7636,       928,
   73.7838,       968,
   73.8039,       991,
   73.8241,      1049,
   73.8443,      1041,
   73.8644,      1077,
   73.8846,      1108,
   73.9048,      1113,
   73.9249,      1202,
   73.9451,      1220,
   73.9653,      1262,
   73.9855,      1338,
   74.0056,      1352,
   74.0258,      1409,
    74.046,      1441,
   74.0661,      1592,
   74.0863,      1673,
   74.1065,      1727,
   74.1266,      1730,
   74.1468,      1648,
    74.167,      1529,
   74.1871,      1424,
   74.2073,      1473,
   74.2275,      1411,
   74.2476,      1449,
   74.2678,      1407,
    74.288,      1396,
   74.3082,      1393,
   74.3283,      1413,
   74.3485,      1287,
   74.3687,      1268,
   74.3888,      1271,
    74.409,      1215,
   74.4292,      1121,
   74.4493,      1089,
   74.4695,       999,
   74.4897,      1049,
   74.5098,       954,
     74.53,       983,
   74.5502,       885,
   74.5703,       950,
   74.5905,       876,
   74.6107,       859,
   74.6308,       801,
    74.651,       832,
   74.6712,       853,
   74.6914,       760,
   74.7115,       810,
   74.7317,       767,
   74.7519,       707,
    74.772,       709,
   74.7922,       702,
   74.8124,       753,
   74.8325,       694,
   74.8527,       728,
   74.8729,       665,
    74.893,       712,
   74.9132,       690,
   74.9334,       673,
   74.9535,       626,
   74.9737,       645,
   74.9939,       642,
    75.014,       642,
   75.0342,       641,
   75.0544,       615,
   75.0746,       679,
   75.0947,       663,
   75.1149,       677,
   75.1351,       629,
   75.1552,       645,
   75.1754,       647,
   75.1956,       608,
   75.2157,       620,
   75.2359,       636,
   75.2561,       615,
   75.2762,       686,
   75.2964,       606,
   75.3166,       607,
   75.3367,       668,
   75.3569,       634,
   75.3771,       661,
   75.3973,       658,
   75.4174,       635,
   75.4376,       614,
   75.4578,       659,
   75.4779,       632,
   75.4981,       637,
   75.5183,       643,
   75.5384,       630,
   75.5586,       616,
   75.5788,       630,
   75.5989,       593,
   75.6191,       601,
   75.6393,       578,
   75.6594,       636,
   75.6796,       620,
   75.6998,       600,
   75.7199,       609,
   75.7401,       637,
   75.7603,       636,
   75.7805,       603,
   75.8006,       628,
   75.8208,       604,
    75.841,       617,
   75.8611,       633,
   75.8813,       597,
   75.9015,       615,
   75.9216,       579,
   75.9418,       624,
    75.962,       586,
   75.9821,       582,
   76.0023,       623,
   76.0225,       576,
   76.0426,       602,
   76.0628,       640,
    76.083,       599,
   76.1032,       573,
   76.1233,       559,
   76.1435,       609,
   76.1637,       603,
   76.1838,       556,
    76.204,       569,
   76.2242,       620,
   76.2443,       615,
   76.2645,       608,
   76.2847,       645,
   76.3048,       620,
    76.325,       606,
   76.3452,       632,
   76.3653,       599,
   76.3855,       592,
   76.4057,       621,
   76.4258,       621,
    76.446,       619,
   76.4662,       602,
   76.4864,       639,
   76.5065,       575,
   76.5267,       609,
   76.5469,       601,
    76.567,       601,
   76.5872,       595,
   76.6074,       577,
   76.6275,       607,
   76.6477,       611,
   76.6679,       616,
    76.688,       626,
   76.7082,       640,
   76.7284,       609,
   76.7485,       585,
   76.7687,       605,
   76.7889,       671,
    76.809,       587,
   76.8292,       610,
   76.8494,       623,
   76.8696,       587,
   76.8897,       616,
   76.9099,       650,
   76.9301,       602,
   76.9502,       597,
   76.9704,       574,
   76.9906,       599,
   77.0107,       598,
   77.0309,       627,
   77.0511,       616,
   77.0712,       574,
   77.0914,       611,
   77.1116,       614,
   77.1317,       597,
   77.1519,       593,
   77.1721,       608,
   77.1923,       567,
   77.2124,       605,
   77.2326,       587,
   77.2528,       574,
   77.2729,       599,
   77.2931,       596,
   77.3133,       568,
   77.3334,       591,
   77.3536,       579,
   77.3738,       616,
   77.3939,       609,
   77.4141,       577,
   77.4343,       603,
   77.4544,       579,
   77.4746,       618,
   77.4948,       590,
   77.5149,       564,
   77.5351,       583,
   77.5553,       597,
   77.5755,       607,
   77.5956,       651,
   77.6158,       596,
    77.636,       563,
   77.6561,       540,
   77.6763,       579,
   77.6965,       602,
   77.7166,       625,
   77.7368,       569,
    77.757,       606,
   77.7771,       590,
   77.7973,       575,
   77.8175,       588,
   77.8376,       628,
   77.8578,       594,
    77.878,       569,
   77.8981,       621,
   77.9183,       613,
   77.9385,       597,
   77.9587,       589,
   77.9788,       617,
    77.999,       589,
