;RAW4.00
[RawHeader]
Date=11/25/2025
EstimatedTotalTime=426.6
FurtherDQLReading=0
HardwareIndicator=65519
MeasuredTotalTime=4.29393
MeasurementFlag=1
NumberOfMeasuredRanges=1
NumberOfRanges=1
Time=22:59:52

[VarInfo]
Type=USER
Flags=0
Value=Lab Manager

[VarInfo]
Type=SAMPLEID
Flags=0
Value=Commander Sample ID

[VarInfo]
Type=COMMENT
Flags=0
Value=

[VarInfo]
Type=UTF
Flags=0
Value=

[VarInfo]
Type=CREATOR
Flags=0
Value=V5Converter

[VarInfo]
Type=CREATOR_VERSION
Flags=0
Value=4.4.16.0

[HardwareConfiguration]
AbsorptionFactor=9999
ActivateAbsorber=0
Alpha1=1.5406
Alpha2=1.54439
AlphaAverage=1.54184
AlphaRatio=0.5
Analyzer=0
Anode=Cu
AntiScatteringSlit=9999
BeamOpticsFlags=0
Beta=1.39222
BetaRelativeIntensity=0
DeactivateAbsorber=0
DetectorSlit=9999
DivergenceSlit=9999
GoniometerControl=0
GoniometerDiameter=282
GoniometerModel=256
GoniometerStage=7
Monochromator=0
NearSampleSlit=9999
PrimarySollerSlit=9999
SampleChanger=0
SecondSollerSlit=9999
SynchronousAxis=0
ThinFilmAttachment=9999
WaveUnit=A

[RangeHeader]
ActuallyUsedLambda=1.54184
AdditionalDetectorMask=257
DataRecordLength=4
DelayTime=0
DisplayPlaneNumber=0
EstimatedScanTime=427
ExtraParametersMask=0
GeneratorCurrent=10
GeneratorVoltage=30
Increment=0.0201685
Increment3=0
NumberOfCompletedData=1885
NumberOfCounts=1
NumberOfDetectors=0
NumberOfDrives=3
NumberOfEncoderDrives=0
NumberOfMeasuredData=1885
NumberOfVaryingParameters=0
RangeStartTime=0
RotationSpeed=0
ScanMode=1
ScanType=Locked Coupled
SimulatedMeasConditions=0
SlitChangerIn=0
SmootingWidth=0
Start=40.0015
Steps=1885
SynchronousRotation=0
Time=33

[VarInfo]
Type=PSD_DISCRIM
Flags=0
Value=0.11;0.5

[VarInfo]
Type=OPTICS_V5
Flags=0
Value=H4sIAAAAAAAEAO1d63KjOhJ+Fda/zqmtBIPtXKaITzm2J+OaOHbFTnKmtrZcBORYZzC4AOey//d99hl2X2x1QViIS8C3JBN+TCaodWm6+2vUUkfS/nieW9IjcD3o2GcV5bBakYBtOCa0H84qS396oBxV/mhqF44NnTnwgdt25gvHBrbf0X1dQq1t78uzB88qM99ffJHlp6enw6faoeM+yGq1qsh/9i9HxgzM9QNoe75uG6AStjJfb1WRbqEH7y1wpc/BWWXFR0joAM9w4cInL/Bj4UHLsSW+3oXrLBc9NBZ6t3Pgojcb3P8FDH+o+7OzitwBj9AAMt+CrxUfl1Lblu55QRehTORzoM8XqLDt2L4ObeBy/coBc6yHluEvdYtxoR6o1ePT02O5h8TkLue4tzhrTW2EZGjqqBswQr3oFvyXjl+9OdUtD2hyGln7c259hcAyrwHqHhq4EDFpA/KbJ8lNjfKD1ToCFipvdm00JDA1OUbR6Btwou9Ab2HpL824AjQ5tXK8m+bF4OrHhPzodEft64TGrBVWDOsoPhpP1bBWhrxWvISy1r0hIUP+4r8skMLHrm78xG8sGODQhXPdfSHkZBMMakgD9GxISBvSeHkPOIFIQeOidilHx44baRI9r5mSRmyEDSxUYBJZ3blu/xy4JnCvAfYzAL0wsdX3b8s5NVnMwIfj6+8T9KPV/l7IxHm5Jhp5z0OvBh9BE+kGCS98DAk920dCZMIVSikeHA9SJulgmhwp1bAq2ZMXfZT4B2LSAxc+QFu3ogSlwl6OWi7Ssb/0moPwnSLFGmsYPPedJdIj0qJQrgWE0MJ5JCOdEXICmjFtjmnJUA7J0tRxpRHQLUBtYA3AytxYcejGiMm4JZa46kmmLG0LrhEWBa3xcus++8A2MZDfDYZpCWdMkQKtj5nwHfcltGVFk+OFGseMJxH2qHoYWND7cnJosmJN5ku1uCnh1+H65qyTKx3Y545jAR1NEG5s6BPpdiDSG56bXcI59IlYwiKvWdVk7knrgKm+tPxb3VoCboigVyQ96CPXTshnFewlKri/oQta5l9LD8GnYEuZYx67mbHTJoqe6ZblPK0cjVCOarZnwPgJzFUVVqC1ESPOHKsWvx33pNH5Zl7erhEyxkg2xVq1lr7TdoHug6HrLIDrvzAWEyiR9/eIRfdMhLKr5fweuE21rslCEdaQRS08UPF//xMyUSUc9B0TNG8Quqbos4xMnTwz90Y+PzEHluy7tuWt5HgP/ND5vNXOHBXjLvaN2aNbYuh5A79Evm3IJvErCL6JJ23LP418rD3OPSHRTOHDEjnla/gw85sIdabECnU0BoKwUKWYS+vrz5fAfvBnTbXRwKJhj2nOjrJISkNktZevObqMVm/q5DL4SnFwGS02cm5pFninPwKqkpa1mOmKYIUieVuWOJh2nCVqyWzxf//ehzWm2Nxw9uJBQ7dIeQJnTA/KYaNePXrNFtfo7ca2MPfItOjcf/WMZelYS+paugfVBtErK9H60Ibz5bx5oBwenx4fndaUWv3kSK0pjePu32vVE4S4oAZGIvklvWZQ4W0Rs4b0UpC0Rk/7QJiajTD10yOsXjvdJsRYdyXGNhLfFkDGuto1yh6Bqz+IoV6M/ulxppzUt4kz1l2Js43EtwWcsa52jLNz4OupIMPET46w2qmqqttD2Kq7EmEbiW9jhK262jHCrvGaRirECHVXGHuvCFutth02NsJWrKMSVWsKbh08xTrZCZK+OsbSG7gQ2D5ZHRSgJJK3tspG1g4H057tH9XfH6CibEVXr/OjKbkXhfRCBYDfqOeDOWLs0nmABl3VvJn0rm5bl73OpP2tN9TkFYkJfAye/WbPftQtiMQzg4uVjCJaIvW07+CFjI1lEf6uyTEWsnm67F2lsnIJbSARW0kbWtlk6OEgY+yhA20/e3B1k8GZLoaD0auqCHeKD6S58wgk35HmwJjpNrYKCTmTxd/SeKxl8/ienF2WXefzdFk9bOTm6N5Lz546UqiqhAVciZbr3FOQY3BWIVUkVBrdJr+ZtC6H31rRcrGRhEeyyEjkXXKxo0bYURPZUVPYUbPYUQuzEywL8PxEyoQBQloib5PW7UUWe0HrokySmCrg8D78PeybkkWGzrvjVjIvuH4+FiIbUQEDqBXeyxN46LJSkY3uZbffvRqnSMV2TCAFbaXVSDlkQmfBvNq4EkHsASVZZdetcW+QpTTSOp+8YlOLgL9pYnk4ToQicvl10J4MrpMZJONJkeZyfMe6Ed+xvgA2skTfcYU8TFacvPmcsQFLZ8dr7r82tXQiP3O7dSw/voYXlO4q5vl5u6WEjcypLxqFfRNqVSHyCL4FKaFHctihVBMCjFp1f7FErbF+MBEXRsEvZLo55TW19tJ1sT+LmlpQuitTm7f2YWpolHD6sQ1TaySFsh/E0uKy2LulDZ0nkgHOmxQp25WV3aUEnW+xcHMnRJr5lluqhymm+EkWW+4491hde7Ul3ssWbV9+7YtfJA0UTQyNGXBfyVbbPA8ud74bklUw60j9YgWfilQ/I4dzraYmBmuZ2QhiKJW9qxqLdLI3h6IxR/YytzAXT1vD42MIIXVJnC4nR8cylyaJ7OZRhxZeJcCPHu2eWH2ZQFkmUJYJlGUCZZlA+fE2xcsEyvezJV4mUP6aCCsTKN8TxsoEyl8VZ2UC5XvCWZlA+ashrEygfE8IKxMoywTKMoGyTKAsEyjLBMoygbJMoCwTKMsEyjKBskygLBMoywTKMoGyTKAsEyjLBMoygbJMoHzr+KNMoCwTKD9tAiXLkUS/iumT7KzT+Cmg4tm7GScqd+cL/4UkG4arGcVOT+72h4PRhP4scnoyGTg0xcTzk2U+BzLzcGMl7XBjde+HGw8WbefceR5MR45lATfhiGNKyDjkmKsg/WbotmTQQ8ElNJZEifQE7N/XgX9k+LhXSSBnuYaE6hunwkb7FPSZfOxxRGTIPPKL8PePe2KymphYK0bAR+scevtxXAin6Q2diJrmRGpv50S+wmdgEkNlcw/RmVjQz3IliCz1U2CAaRv4kdXICV5EJGb6ELHy5h6E61FQZYr/YA2o98gntQ/sOmq5XMfxeudlE7OmVzSsTJpYMhZe0hcRy1SR/jGf/zPDjH/DR/7fA2QfErQ9hAVgol98R9I5hWWaMq5mhBds4KeJUp0oaQYcIb5mwIVtN52ZmPP5qH/5US30lx930PRnYm4HLtvZktP8/WxBxzgL44DNsuvjPeVdZqh+7nWGuODWWWeI97KTtI5vABumgB1a+LnBszXslNBZz+i3gpzt3wSirjOzGenzhQXuZgBYY/QC/KUgIkkjH65UJ0ChmfamMj+F+lCxGJtFbxiJ1dIisfpGkRjhMR6HvT9h3thLD5hkeHHgLInKwm1g17oJl16CldWVYB+fXrg3mE494KdZfesZevz3Iay2B1ceYybnbh1ywVU1LSlVPTypn6qNRkNN8LvHjcOTRv24dqQqvK8VhNAM7mETbitc+w7DEUCRgJl9i2FYh7v9roNCXwNnMmzhLkORh4SYKLFGsfsMwz42ifVFRj70nYaF9FrM/4zwzYaj4jcbRuW787sNw+F2cbvhyRss3uHlOks3wMyxzMQtgMsX+xm8pBxzcfnj6s/ujy654bCjSsOZ7olX4OYEsRyOEwezQMpa3mDWKOO8X3k4Wj2jProvYAvX6KYzLmrzl7v28CTPUlxNiU9Yi8wL0ecUu0XdWrmWfniNJk2pxn6HJHazGl4xZ9PpjyfkXwFHw4ba6R6gstmscZebgP09bgIKCIswkLYN2N/zNmAmj6JSs3YC+59rJ1Cp53Ii1c+wFVhGSkUjpbRAqXF4dHrSUJRqPWmBqqEcHldP68dqfQeB0sontAHGieA9hcKI4+SmzLSadMAw70kjnLfkkW8dVkPLMIDnOS4E3hoRE+Mi7j2jlLwRUvyl1/ekrIcPHRqtqcpiLudicNWekB9FHA7lZ+eh0Ri4qHQnkdHp3mdFwxkkShPAfO0EGXBRYgTUqKlErdE1Wb0CGJXZGHSdNqGDKCsJ1TJnP6vqMuJUZpxuDuAUxgVFpsREEgUYMFu+rxszPNBZ5WDPRwluc5pzmitr4SQ+y+l5TBQhKMMCjfMcZLfIWj48ALPjYkzSv8ZE3eHvWs9sIu2S3oNHTCEVRwtgwGnwt6KsUpyC4BLvvcgEK46DYs5u+K03mpAfRZxdFKHbnGBVi0yvQisOP5lEYfRDEPwf22IqXU7pckqXI7qcECvsd+8VLsZPznhGTjB6jZVIzZz8ZA+dc9yig6ZEJvFifFQxXo8YAd9H0PIkfi6GHAXNPKxILbzB7vVR6AbplI5NtLGOuVT/5i2e1Rn4EFu+VFtBkewhB6uqmiyUa3yqI/WAkWUTj/6JxSqYYK6D6Pv/u9RXv2COAAA=

[PSD]
ActualTwoTheta=9999
FirstUsedChannel=0
FixedPSD=0
PSDOpening=4.99171
PSDType=5

[Drive]
DriveFlags=1
DriveName=2Theta
DriveNumber=2
DriveOffset=0
OffsetIndex=0
OscillationAmplitude=0
OscillationSpeed=0
StartPosition=40.0015

[Drive]
DriveFlags=1
DriveName=Theta
DriveNumber=1
DriveOffset=0
OffsetIndex=0
OscillationAmplitude=0
OscillationSpeed=0
StartPosition=20.0007

[Drive]
DriveFlags=1
DriveName=Phi
DriveNumber=3
DriveOffset=0
OffsetIndex=0
OscillationAmplitude=0
OscillationSpeed=0
StartPosition=0

[Data]
     Angle,       PSD,
   40.0015,       654,
   40.0217,       647,
   40.0418,       656,
    40.062,       638,
   40.0822,       668,
   40.1023,       664,
   40.1225,       605,
   40.1427,       623,
   40.1628,       620,
    40.183,       684,
   40.2032,       682,
   40.2233,       655,
   40.2435,       623,
   40.2637,       604,
   40.2838,       631,
    40.304,       657,
   40.3242,       612,
   40.3444,       668,
   40.3645,       645,
   40.3847,       654,
   40.4049,       690,
    40.425,       663,
   40.4452,       691,
   40.4654,       669,
   40.4855,       683,
   40.5057,       641,
   40.5259,       686,
    40.546,       626,
   40.5662,       634,
   40.5864,       626,
   40.6065,       641,
   40.6267,       673,
   40.6469,       624,
   40.6671,       634,
   40.6872,       703,
   40.7074,       637,
   40.7276,       640,
   40.7477,       643,
   40.7679,       653,
   40.7881,       650,
   40.8082,       669,
   40.8284,       709,
   40.8486,       677,
   40.8687,       639,
   40.8889,       675,
   40.9091,       696,
   40.9292,       697,
   40.9494,       689,
   40.9696,       734,
   40.9897,       679,
   41.0099,       644,
   41.0301,       686,
   41.0503,       723,
   41.0704,       685,
   41.0906,       659,
   41.1108,       701,
   41.1309,       660,
   41.1511,       681,
   41.1713,       709,
   41.1914,       627,
   41.2116,       700,
   41.2318,       689,
   41.2519,       657,
   41.2721,       692,
   41.2923,       723,
   41.3124,       693,
   41.3326,       672,
   41.3528,       685,
   41.3729,       685,
   41.3931,       707,
   41.4133,       695,
   41.4335,       671,
   41.4536,       701,
   41.4738,       718,
    41.494,       709,
   41.5141,       742,
   41.5343,       721,
   41.5545,       680,
   41.5746,       745,
   41.5948,       727,
    41.615,       701,
   41.6351,       750,
   41.6553,       736,
   41.6755,       707,
   41.6956,       743,
   41.7158,       779,
    41.736,       717,
   41.7562,       700,
   41.7763,       754,
   41.7965,       765,
   41.8167,       737,
   41.8368,       786,
    41.857,       780,
   41.8772,       793,
   41.8973,       773,
   41.9175,       784,
   41.9377,       811,
   41.9578,       787,
    41.978,       813,
   41.9982,       802,
   42.0183,       823,
   42.0385,       853,
   42.0587,       827,
   42.0788,       839,
    42.099,       831,
   42.1192,       834,
   42.1394,       817,
   42.1595,       805,
   42.1797,       857,
   42.1999,       833,
     42.22,       869,
   42.2402,       818,
   42.2604,       869,
   42.2805,       870,
   42.3007,       892,
   42.3209,       867,
    42.341,       891,
   42.3612,       899,
   42.3814,       912,
   42.4015,       876,
   42.4217,       917,
   42.4419,       885,
    42.462,       961,
   42.4822,       926,
   42.5024,       993,
   42.5226,       917,
   42.5427,       976,
   42.5629,       997,
   42.5831,      1015,
   42.6032,       986,
   42.6234,      1031,
   42.6436,      1052,
   42.6637,      1070,
   42.6839,      1122,
   42.7041,      1106,
   42.7242,      1133,
   42.7444,      1238,
   42.7646,      1126,
   42.7847,      1276,
   42.8049,      1288,
   42.8251,      1272,
   42.8453,      1417,
   42.8654,      1453,
   42.8856,      1536,
   42.9058,      1532,
   42.9259,      1634,
   42.9461,      1761,
   42.9663,      1732,
   42.9864,      1980,
   43.0066,      2122,
   43.0268,      2231,
   43.0469,      2512,
   43.0671,      2670,
   43.0873,      2799,
   43.1074,      3216,
   43.1276,      3668,
   43.1478,      4083,
   43.1679,      4765,
   43.1881,      5291,
   43.2083,      6045,
   43.2285,      7301,
   43.2486,      8369,
   43.2688,      9845,
    43.289,     11290,
   43.3091,     13187,
   43.3293,     15191,
   43.3495,     16433,
   43.3696,     16613,
   43.3898,     16153,
     43.41,     15476,
   43.4301,     14657,
   43.4503,     14076,
   43.4705,     13190,
   43.4906,     12096,
   43.5108,     10410,
    43.531,      9261,
   43.5511,      7968,
   43.5713,      6848,
   43.5915,      5920,
   43.6117,      5164,
   43.6318,      4538,
    43.652,      4124,
   43.6722,      3590,
   43.6923,      3153,
   43.7125,      3004,
   43.7327,      2697,
   43.7528,      2472,
    43.773,      2290,
   43.7932,      2033,
   43.8133,      1959,
   43.8335,      1952,
   43.8537,      1720,
   43.8738,      1645,
    43.894,      1602,
   43.9142,      1521,
   43.9344,      1452,
   43.9545,      1440,
   43.9747,      1298,
   43.9949,      1288,
    44.015,      1252,
   44.0352,      1244,
   44.0554,      1159,
   44.0755,      1239,
   44.0957,      1193,
   44.1159,      1155,
    44.136,      1089,
   44.1562,      1098,
   44.1764,      1064,
   44.1965,      1059,
   44.2167,      1006,
   44.2369,      1005,
    44.257,      1021,
   44.2772,       991,
   44.2974,       992,
   44.3176,       962,
   44.3377,       982,
   44.3579,       932,
   44.3781,       969,
   44.3982,       942,
   44.4184,      1021,
   44.4386,       891,
   44.4587,       882,
   44.4789,       903,
   44.4991,       901,
   44.5192,       905,
   44.5394,       923,
   44.5596,       925,
   44.5797,       911,
   44.5999,       928,
   44.6201,       837,
   44.6402,       900,
   44.6604,       873,
   44.6806,       884,
   44.7008,       861,
   44.7209,       894,
   44.7411,       837,
   44.7613,       838,
   44.7814,       811,
   44.8016,       828,
   44.8218,       873,
   44.8419,       843,
   44.8621,       844,
   44.8823,       818,
   44.9024,       853,
   44.9226,       771,
   44.9428,       800,
   44.9629,       773,
   44.9831,       837,
   45.0033,       796,
   45.0235,       795,
   45.0436,       788,
   45.0638,       811,
    45.084,       786,
   45.1041,       790,
   45.1243,       797,
   45.1445,       719,
   45.1646,       768,
   45.1848,       784,
    45.205,       804,
   45.2251,       818,
   45.2453,       765,
   45.2655,       796,
   45.2856,       793,
   45.3058,       758,
    45.326,       820,
   45.3461,       763,
   45.3663,       769,
   45.3865,       799,
   45.4067,       748,
   45.4268,       739,
    45.447,       767,
   45.4672,       804,
   45.4873,       801,
   45.5075,       803,
   45.5277,       740,
   45.5478,       753,
    45.568,       792,
   45.5882,       762,
   45.6083,       768,
   45.6285,       787,
   45.6487,       723,
   45.6688,       757,
    45.689,       822,
   45.7092,       733,
   45.7294,       700,
   45.7495,       753,
   45.7697,       764,
   45.7899,       722,
     45.81,       764,
   45.8302,       762,
   45.8504,       797,
   45.8705,       739,
   45.8907,       741,
   45.9109,       769,
    45.931,       732,
   45.9512,       725,
   45.9714,       746,
   45.9915,       764,
   46.0117,       734,
   46.0319,       760,
    46.052,       710,
   46.0722,       748,
   46.0924,       709,
   46.1126,       705,
   46.1327,       754,
   46.1529,       781,
   46.1731,       734,
   46.1932,       764,
   46.2134,       701,
   46.2336,       752,
   46.2537,       747,
   46.2739,       729,
   46.2941,       664,
   46.3142,       696,
   46.3344,       723,
   46.3546,       702,
   46.3747,       756,
   46.3949,       753,
   46.4151,       751,
   46.4352,       730,
   46.4554,       753,
   46.4756,       731,
   46.4958,       680,
   46.5159,       752,
   46.5361,       750,
   46.5563,       706,
   46.5764,       754,
   46.5966,       691,
   46.6168,       759,
   46.6369,       691,
   46.6571,       682,
   46.6773,       760,
   46.6974,       735,
   46.7176,       697,
   46.7378,       737,
   46.7579,       735,
   46.7781,       693,
   46.7983,       724,
   46.8185,       711,
   46.8386,       737,
   46.8588,       702,
    46.879,       720,
   46.8991,       713,
   46.9193,       725,
   46.9395,       689,
   46.9596,       691,
   46.9798,       730,
        47,       716,
   47.0201,       700,
   47.0403,       739,
   47.0605,       729,
   47.0806,       737,
   47.1008,       729,
    47.121,       715,
   47.1411,       749,
   47.1613,       724,
   47.1815,       685,
   47.2017,       743,
   47.2218,       712,
    47.242,       706,
   47.2622,       764,
   47.2823,       742,
   47.3025,       779,
   47.3227,       756,
   47.3428,       706,
    47.363,       737,
   47.3832,       701,
   47.4033,       752,
   47.4235,       746,
   47.4437,       721,
   47.4638,       747,
    47.484,       666,
   47.5042,       689,
   47.5243,       748,
   47.5445,       751,
   47.5647,       726,
   47.5849,       700,
    47.605,       692,
   47.6252,       725,
   47.6454,       708,
   47.6655,       693,
   47.6857,       754,
   47.7059,       772,
    47.726,       729,
   47.7462,       702,
   47.7664,       678,
   47.7865,       682,
   47.8067,       694,
   47.8269,       732,
    47.847,       733,
   47.8672,       688,
   47.8874,       683,
   47.9076,       729,
   47.9277,       726,
   47.9479,       704,
   47.9681,       749,
   47.9882,       779,
   48.0084,       684,
   48.0286,       750,
   48.0487,       727,
   48.0689,       715,
   48.0891,       723,
   48.1092,       700,
   48.1294,       748,
   48.1496,       707,
   48.1697,       721,
   48.1899,       720,
   48.2101,       717,
   48.2302,       726,
   48.2504,       717,
   48.2706,       749,
   48.2908,       775,
   48.3109,       727,
   48.3311,       739,
   48.3513,       711,
   48.3714,       788,
   48.3916,       787,
   48.4118,       739,
   48.4319,       719,
   48.4521,       824,
   48.4723,       778,
   48.4924,       748,
   48.5126,       771,
   48.5328,       776,
   48.5529,       739,
   48.5731,       794,
   48.5933,       736,
   48.6134,       767,
   48.6336,       773,
   48.6538,       764,
    48.674,       797,
   48.6941,       746,
   48.7143,       760,
   48.7345,       804,
   48.7546,       713,
   48.7748,       787,
    48.795,       791,
   48.8151,       793,
   48.8353,       776,
   48.8555,       765,
   48.8756,       793,
   48.8958,       769,
    48.916,       796,
   48.9361,       775,
   48.9563,       741,
   48.9765,       761,
   48.9967,       792,
   49.0168,       760,
    49.037,       770,
   49.0572,       795,
   49.0773,       747,
   49.0975,       738,
   49.1177,       797,
   49.1378,       753,
    49.158,       750,
   49.1782,       810,
   49.1983,       783,
   49.2185,       788,
   49.2387,       804,
   49.2588,       840,
    49.279,       805,
   49.2992,       840,
   49.3193,       849,
   49.3395,       829,
   49.3597,       835,
   49.3799,       891,
      49.4,       833,
   49.4202,       830,
   49.4404,       892,
   49.4605,       847,
   49.4807,       841,
   49.5009,       827,
    49.521,       908,
   49.5412,       942,
   49.5614,       874,
   49.5815,       903,
   49.6017,       999,
   49.6219,       963,
    49.642,       959,
   49.6622,       988,
   49.6824,       969,
   49.7025,       991,
   49.7227,       996,
   49.7429,      1052,
   49.7631,      1021,
   49.7832,      1040,
   49.8034,      1044,
   49.8236,      1101,
   49.8437,      1116,
   49.8639,      1101,
   49.8841,      1208,
   49.9042,      1200,
   49.9244,      1245,
   49.9446,      1228,
   49.9647,      1272,
   49.9849,      1317,
   50.0051,      1412,
   50.0252,      1461,
   50.0454,      1473,
   50.0656,      1578,
   50.0858,      1644,
   50.1059,      1699,
   50.1261,      1829,
   50.1463,      1835,
   50.1664,      1992,
   50.1866,      2102,
   50.2068,      2236,
   50.2269,      2358,
   50.2471,      2493,
   50.2673,      2537,
   50.2874,      2770,
   50.3076,      2894,
   50.3278,      3094,
   50.3479,      3318,
   50.3681,      3438,
   50.3883,      3555,
   50.4084,      3732,
   50.4286,      3883,
   50.4488,      4011,
    50.469,      4073,
   50.4891,      4266,
   50.5093,      4220,
   50.5295,      4057,
   50.5496,      4052,
   50.5698,      3911,
     50.59,      3879,
   50.6101,      3766,
   50.6303,      3637,
   50.6505,      3459,
   50.6706,      3251,
   50.6908,      3070,
    50.711,      2943,
   50.7311,      2710,
   50.7513,      2562,
   50.7715,      2432,
   50.7917,      2375,
   50.8118,      2223,
    50.832,      2086,
   50.8522,      1894,
   50.8723,      1902,
   50.8925,      1695,
   50.9127,      1635,
   50.9328,      1604,
    50.953,      1457,
   50.9732,      1408,
   50.9933,      1390,
   51.0135,      1350,
   51.0337,      1309,
   51.0538,      1281,
    51.074,      1187,
   51.0942,      1097,
   51.1143,      1210,
   51.1345,      1057,
   51.1547,      1057,
   51.1749,      1041,
    51.195,      1037,
   51.2152,       984,
   51.2354,       962,
   51.2555,       900,
   51.2757,       905,
   51.2959,       951,
    51.316,       933,
   51.3362,       897,
   51.3564,       880,
   51.3765,       929,
   51.3967,       853,
   51.4169,       865,
    51.437,       838,
   51.4572,       833,
   51.4774,       802,
   51.4975,       791,
   51.5177,       805,
   51.5379,       793,
   51.5581,       791,
   51.5782,       788,
   51.5984,       727,
   51.6186,       768,
   51.6387,       750,
   51.6589,       805,
   51.6791,       761,
   51.6992,       695,
   51.7194,       733,
   51.7396,       717,
   51.7597,       776,
   51.7799,       777,
   51.8001,       741,
   51.8202,       712,
   51.8404,       743,
   51.8606,       767,
   51.8808,       712,
   51.9009,       752,
   51.9211,       767,
   51.9413,       721,
   51.9614,       710,
   51.9816,       727,
   52.0018,       762,
   52.0219,       712,
   52.0421,       721,
   52.0623,       727,
   52.0824,       702,
   52.1026,       708,
   52.1228,       711,
   52.1429,       732,
   52.1631,       609,
   52.1833,       708,
   52.2034,       716,
   52.2236,       719,
   52.2438,       680,
    52.264,       666,
   52.2841,       739,
   52.3043,       706,
   52.3245,       709,
   52.3446,       699,
   52.3648,       719,
    52.385,       703,
   52.4051,       641,
   52.4253,       672,
   52.4455,       674,
   52.4656,       691,
   52.4858,       669,
    52.506,       671,
   52.5261,       662,
   52.5463,       703,
   52.5665,       681,
   52.5866,       682,
   52.6068,       712,
    52.627,       671,
   52.6472,       736,
   52.6673,       695,
   52.6875,       661,
   52.7077,       710,
   52.7278,       670,
    52.748,       645,
   52.7682,       649,
   52.7883,       697,
   52.8085,       708,
   52.8287,       695,
   52.8488,       716,
    52.869,       687,
   52.8892,       643,
   52.9093,       643,
   52.9295,       657,
   52.9497,       694,
   52.9699,       704,
     52.99,       670,
   53.0102,       701,
   53.0304,       652,
   53.0505,       671,
   53.0707,       680,
   53.0909,       683,
    53.111,       715,
   53.1312,       658,
   53.1514,       666,
   53.1715,       684,
   53.1917,       673,
   53.2119,       699,
    53.232,       675,
   53.2522,       680,
   53.2724,       644,
   53.2925,       700,
   53.3127,       682,
   53.3329,       689,
   53.3531,       645,
   53.3732,       649,
   53.3934,       689,
   53.4136,       656,
   53.4337,       646,
   53.4539,       643,
   53.4741,       689,
   53.4942,       642,
   53.5144,       669,
   53.5346,       677,
   53.5547,       669,
   53.5749,       642,
   53.5951,       680,
   53.6152,       628,
   53.6354,       652,
   53.6556,       686,
   53.6757,       631,
   53.6959,       633,
   53.7161,       654,
   53.7363,       662,
   53.7564,       641,
   53.7766,       648,
   53.7968,       628,
   53.8169,       657,
   53.8371,       615,
   53.8573,       633,
   53.8774,       693,
   53.8976,       645,
   53.9178,       658,
   53.9379,       635,
   53.9581,       647,
   53.9783,       716,
   53.9984,       680,
   54.0186,       634,
   54.0388,       644,
    54.059,       661,
   54.0791,       632,
   54.0993,       662,
   54.1195,       693,
   54.1396,       660,
   54.1598,       656,
     54.18,       628,
   54.2001,       700,
   54.2203,       672,
   54.2405,       624,
   54.2606,       703,
   54.2808,       641,
    54.301,       670,
   54.3211,       696,
   54.3413,       638,
   54.3615,       650,
   54.3816,       617,
   54.4018,       635,
    54.422,       660,
   54.4422,       669,
   54.4623,       633,
   54.4825,       674,
   54.5027,       630,
   54.5228,       685,
    54.543,       646,
   54.5632,       693,
   54.5833,       659,
   54.6035,       661,
   54.6237,       666,
   54.6438,       650,
    54.664,       679,
   54.6842,       646,
   54.7043,       670,
   54.7245,       621,
   54.7447,       647,
   54.7648,       656,
    54.785,       652,
   54.8052,       670,
   54.8254,       645,
   54.8455,       639,
   54.8657,       672,
   54.8859,       636,
    54.906,       613,
   54.9262,       602,
   54.9464,       661,
   54.9665,       629,
   54.9867,       656,
   55.0069,       591,
    55.027,       628,
   55.0472,       694,
   55.0674,       658,
   55.0875,       653,
   55.1077,       653,
   55.1279,       663,
   55.1481,       707,
   55.1682,       655,
   55.1884,       651,
   55.2086,       676,
   55.2287,       645,
   55.2489,       638,
   55.2691,       663,
   55.2892,       664,
   55.3094,       643,
   55.3296,       624,
   55.3497,       679,
   55.3699,       630,
   55.3901,       668,
   55.4102,       699,
   55.4304,       675,
   55.4506,       626,
   55.4707,       595,
   55.4909,       650,
   55.5111,       635,
   55.5313,       663,
   55.5514,       665,
   55.5716,       605,
   55.5918,       626,
   55.6119,       637,
   55.6321,       610,
   55.6523,       642,
   55.6724,       640,
   55.6926,       610,
   55.7128,       653,
   55.7329,       676,
   55.7531,       639,
   55.7733,       660,
   55.7934,       657,
   55.8136,       623,
   55.8338,       659,
    55.854,       648,
   55.8741,       646,
   55.8943,       691,
   55.9145,       651,
   55.9346,       674,
   55.9548,       610,
    55.975,       605,
   55.9951,       665,
   56.0153,       625,
   56.0355,       635,
   56.0556,       630,
   56.0758,       627,
    56.096,       640,
   56.1161,       646,
   56.1363,       619,
   56.1565,       618,
   56.1766,       612,
   56.1968,       635,
    56.217,       612,
   56.2372,       613,
   56.2573,       631,
   56.2775,       638,
   56.2977,       618,
   56.3178,       640,
    56.338,       610,
   56.3582,       621,
   56.3783,       642,
   56.3985,       630,
   56.4187,       641,
   56.4388,       642,
    56.459,       662,
   56.4792,       619,
   56.4993,       634,
   56.5195,       613,
   56.5397,       622,
   56.5598,       635,
     56.58,       600,
   56.6002,       659,
   56.6204,       652,
   56.6405,       628,
   56.6607,       609,
   56.6809,       623,
    56.701,       636,
   56.7212,       629,
   56.7414,       643,
   56.7615,       652,
   56.7817,       641,
   56.8019,       645,
    56.822,       686,
   56.8422,       657,
   56.8624,       606,
   56.8825,       659,
   56.9027,       641,
   56.9229,       654,
   56.9431,       616,
   56.9632,       625,
   56.9834,       634,
   57.0036,       652,
   57.0237,       626,
   57.0439,       657,
   57.0641,       655,
   57.0842,       623,
   57.1044,       616,
   57.1246,       640,
   57.1447,       669,
   57.1649,       658,
   57.1851,       622,
   57.2052,       629,
   57.2254,       629,
   57.2456,       637,
   57.2657,       595,
   57.2859,       637,
   57.3061,       629,
   57.3263,       622,
   57.3464,       650,
   57.3666,       613,
   57.3868,       629,
   57.4069,       666,
   57.4271,       629,
   57.4473,       632,
   57.4674,       643,
   57.4876,       633,
   57.5078,       674,
   57.5279,       658,
   57.5481,       639,
   57.5683,       612,
   57.5884,       627,
   57.6086,       622,
   57.6288,       647,
   57.6489,       617,
   57.6691,       620,
   57.6893,       620,
   57.7095,       653,
   57.7296,       615,
   57.7498,       639,
     57.77,       637,
   57.7901,       591,
   57.8103,       630,
   57.8305,       653,
   57.8506,       640,
   57.8708,       655,
    57.891,       589,
   57.9111,       670,
   57.9313,       620,
   57.9515,       650,
   57.9716,       617,
   57.9918,       582,
    58.012,       653,
   58.0322,       618,
   58.0523,       668,
   58.0725,       624,
   58.0927,       597,
   58.1128,       656,
    58.133,       636,
   58.1532,       640,
   58.1733,       635,
   58.1935,       660,
   58.2137,       610,
   58.2338,       682,
    58.254,       641,
   58.2742,       624,
   58.2943,       671,
   58.3145,       614,
   58.3347,       602,
   58.3548,       611,
    58.375,       641,
   58.3952,       619,
   58.4154,       632,
   58.4355,       593,
   58.4557,       630,
   58.4759,       646,
    58.496,       676,
   58.5162,       664,
   58.5364,       661,
   58.5565,       636,
   58.5767,       625,
   58.5969,       617,
    58.617,       626,
   58.6372,       686,
   58.6574,       590,
   58.6775,       648,
   58.6977,       655,
   58.7179,       628,
    58.738,       631,
   58.7582,       610,
   58.7784,       632,
   58.7986,       606,
   58.8187,       627,
   58.8389,       594,
   58.8591,       661,
   58.8792,       640,
   58.8994,       605,
   58.9196,       640,
   58.9397,       600,
   58.9599,       683,
   58.9801,       623,
   59.0002,       665,
   59.0204,       596,
   59.0406,       689,
   59.0607,       642,
   59.0809,       652,
   59.1011,       639,
   59.1213,       656,
   59.1414,       624,
   59.1616,       618,
   59.1818,       576,
   59.2019,       619,
   59.2221,       625,
   59.2423,       648,
   59.2624,       617,
   59.2826,       622,
   59.3028,       606,
   59.3229,       639,
   59.3431,       623,
   59.3633,       582,
   59.3834,       640,
   59.4036,       677,
   59.4238,       654,
   59.4439,       642,
   59.4641,       626,
   59.4843,       620,
   59.5045,       654,
   59.5246,       632,
   59.5448,       615,
    59.565,       659,
   59.5851,       608,
   59.6053,       613,
   59.6255,       638,
   59.6456,       651,
   59.6658,       619,
    59.686,       648,
   59.7061,       654,
   59.7263,       573,
   59.7465,       623,
   59.7666,       644,
   59.7868,       621,
    59.807,       625,
   59.8271,       646,
   59.8473,       591,
   59.8675,       637,
   59.8877,       636,
   59.9078,       654,
    59.928,       619,
   59.9482,       618,
   59.9683,       646,
   59.9885,       598,
   60.0087,       627,
   60.0288,       654,
    60.049,       661,
   60.0692,       654,
   60.0893,       635,
   60.1095,       581,
   60.1297,       634,
   60.1498,       649,
     60.17,       605,
   60.1902,       630,
   60.2104,       683,
   60.2305,       615,
   60.2507,       609,
   60.2709,       657,
    60.291,       623,
   60.3112,       641,
   60.3314,       630,
   60.3515,       620,
   60.3717,       644,
   60.3919,       618,
    60.412,       618,
   60.4322,       643,
   60.4524,       645,
   60.4725,       610,
   60.4927,       628,
   60.5129,       620,
    60.533,       614,
   60.5532,       584,
   60.5734,       649,
   60.5936,       636,
   60.6137,       660,
   60.6339,       633,
   60.6541,       620,
   60.6742,       643,
   60.6944,       631,
   60.7146,       654,
   60.7347,       638,
   60.7549,       639,
   60.7751,       622,
   60.7952,       616,
   60.8154,       566,
   60.8356,       639,
   60.8557,       644,
   60.8759,       619,
   60.8961,       616,
   60.9163,       596,
   60.9364,       663,
   60.9566,       647,
   60.9768,       641,
   60.9969,       656,
   61.0171,       611,
   61.0373,       623,
   61.0574,       603,
   61.0776,       590,
   61.0978,       612,
   61.1179,       658,
   61.1381,       641,
   61.1583,       615,
   61.1784,       615,
   61.1986,       587,
   61.2188,       630,
   61.2389,       611,
   61.2591,       595,
   61.2793,       612,
   61.2995,       643,
   61.3196,       614,
   61.3398,       606,
     61.36,       580,
   61.3801,       611,
   61.4003,       631,
   61.4205,       624,
   61.4406,       596,
   61.4608,       597,
    61.481,       639,
   61.5011,       620,
   61.5213,       591,
   61.5415,       624,
   61.5616,       630,
   61.5818,       574,
    61.602,       617,
   61.6221,       600,
   61.6423,       620,
   61.6625,       617,
   61.6827,       636,
   61.7028,       628,
    61.723,       644,
   61.7432,       598,
   61.7633,       627,
   61.7835,       625,
   61.8037,       578,
   61.8238,       616,
    61.844,       631,
   61.8642,       582,
   61.8843,       599,
   61.9045,       606,
   61.9247,       557,
   61.9448,       618,
    61.965,       588,
   61.9852,       600,
   62.0054,       618,
   62.0255,       605,
   62.0457,       639,
   62.0659,       599,
    62.086,       614,
   62.1062,       555,
   62.1264,       604,
   62.1465,       599,
   62.1667,       633,
   62.1869,       622,
    62.207,       619,
   62.2272,       605,
   62.2474,       641,
   62.2675,       618,
   62.2877,       619,
   62.3079,       649,
    62.328,       595,
   62.3482,       640,
   62.3684,       595,
   62.3886,       594,
   62.4087,       617,
   62.4289,       634,
   62.4491,       622,
   62.4692,       573,
   62.4894,       590,
   62.5096,       626,
   62.5297,       602,
   62.5499,       617,
   62.5701,       611,
   62.5902,       607,
   62.6104,       611,
   62.6306,       642,
   62.6507,       622,
   62.6709,       633,
   62.6911,       651,
   62.7112,       597,
   62.7314,       649,
   62.7516,       652,
   62.7718,       581,
   62.7919,       634,
   62.8121,       637,
   62.8323,       579,
   62.8524,       593,
   62.8726,       576,
   62.8928,       640,
   62.9129,       625,
   62.9331,       607,
   62.9533,       650,
   62.9734,       616,
   62.9936,       617,
   63.0138,       604,
   63.0339,       605,
   63.0541,       549,
   63.0743,       626,
   63.0945,       589,
   63.1146,       606,
   63.1348,       586,
    63.155,       598,
   63.1751,       656,
   63.1953,       615,
   63.2155,       611,
   63.2356,       590,
   63.2558,       635,
    63.276,       623,
   63.2961,       606,
   63.3163,       594,
   63.3365,       626,
   63.3566,       623,
   63.3768,       598,
    63.397,       627,
   63.4171,       612,
   63.4373,       642,
   63.4575,       613,
   63.4777,       618,
   63.4978,       625,
    63.518,       598,
   63.5382,       576,
   63.5583,       605,
   63.5785,       639,
   63.5987,       615,
   63.6188,       623,
    63.639,       589,
   63.6592,       674,
   63.6793,       576,
   63.6995,       615,
   63.7197,       657,
   63.7398,       635,
     63.76,       597,
   63.7802,       622,
   63.8003,       600,
   63.8205,       658,
   63.8407,       616,
   63.8609,       602,
    63.881,       624,
   63.9012,       586,
   63.9214,       601,
   63.9415,       630,
   63.9617,       611,
   63.9819,       541,
    64.002,       594,
   64.0222,       616,
   64.0424,       665,
   64.0625,       633,
   64.0827,       595,
   64.1029,       598,
    64.123,       624,
   64.1432,       634,
   64.1634,       643,
   64.1836,       593,
   64.2037,       644,
   64.2239,       619,
   64.2441,       603,
   64.2642,       596,
   64.2844,       646,
   64.3046,       621,
   64.3247,       599,
   64.3449,       627,
   64.3651,       608,
   64.3852,       620,
   64.4054,       606,
   64.4256,       665,
   64.4457,       632,
   64.4659,       611,
   64.4861,       584,
   64.5062,       641,
   64.5264,       596,
   64.5466,       591,
   64.5668,       615,
   64.5869,       645,
   64.6071,       625,
   64.6273,       599,
   64.6474,       596,
   64.6676,       625,
   64.6878,       577,
   64.7079,       565,
   64.7281,       640,
   64.7483,       595,
   64.7684,       621,
   64.7886,       581,
   64.8088,       599,
   64.8289,       674,
   64.8491,       628,
   64.8693,       626,
   64.8894,       594,
   64.9096,       665,
   64.9298,       617,
     64.95,       573,
   64.9701,       632,
   64.9903,       650,
   65.0105,       608,
   65.0306,       654,
   65.0508,       637,
    65.071,       637,
   65.0911,       586,
   65.1113,       629,
   65.1315,       625,
   65.1516,       598,
   65.1718,       588,
    65.192,       603,
   65.2121,       587,
   65.2323,       623,
   65.2525,       627,
   65.2727,       650,
   65.2928,       650,
    65.313,       641,
   65.3332,       645,
   65.3533,       611,
   65.3735,       591,
   65.3937,       579,
   65.4138,       618,
    65.434,       609,
   65.4542,       607,
   65.4743,       647,
   65.4945,       625,
   65.5147,       652,
   65.5348,       632,
    65.555,       575,
   65.5752,       678,
   65.5953,       612,
   65.6155,       610,
   65.6357,       609,
   65.6559,       588,
    65.676,       583,
   65.6962,       615,
   65.7164,       585,
   65.7365,       652,
   65.7567,       576,
   65.7769,       661,
    65.797,       622,
   65.8172,       614,
   65.8374,       624,
   65.8575,       639,
   65.8777,       572,
   65.8979,       618,
    65.918,       619,
   65.9382,       648,
   65.9584,       623,
   65.9786,       589,
   65.9987,       628,
   66.0189,       610,
   66.0391,       637,
   66.0592,       591,
   66.0794,       613,
   66.0996,       621,
   66.1197,       552,
   66.1399,       642,
   66.1601,       612,
   66.1802,       631,
   66.2004,       609,
   66.2206,       630,
   66.2407,       656,
   66.2609,       604,
   66.2811,       605,
   66.3012,       600,
   66.3214,       634,
   66.3416,       572,
   66.3618,       612,
   66.3819,       593,
   66.4021,       575,
   66.4223,       612,
   66.4424,       592,
   66.4626,       646,
   66.4828,       604,
   66.5029,       608,
   66.5231,       651,
   66.5433,       597,
   66.5634,       624,
   66.5836,       614,
   66.6038,       600,
   66.6239,       585,
   66.6441,       604,
   66.6643,       629,
   66.6844,       596,
   66.7046,       596,
   66.7248,       626,
    66.745,       643,
   66.7651,       611,
   66.7853,       582,
   66.8055,       590,
   66.8256,       652,
   66.8458,       628,
    66.866,       599,
   66.8861,       642,
   66.9063,       618,
   66.9265,       611,
   66.9466,       607,
   66.9668,       645,
    66.987,       597,
   67.0071,       590,
   67.0273,       593,
   67.0475,       577,
   67.0677,       615,
   67.0878,       600,
    67.108,       589,
   67.1282,       593,
   67.1483,       609,
   67.1685,       618,
   67.1887,       674,
   67.2088,       611,
    67.229,       633,
   67.2492,       623,
   67.2693,       621,
   67.2895,       616,
   67.3097,       602,
   67.3298,       555,
     67.35,       622,
   67.3702,       608,
   67.3903,       603,
   67.4105,       634,
   67.4307,       625,
   67.4509,       597,
    67.471,       602,
   67.4912,       619,
   67.5114,       619,
   67.5315,       608,
   67.5517,       611,
   67.5719,       604,
    67.592,       564,
   67.6122,       584,
   67.6324,       604,
   67.6525,       600,
   67.6727,       585,
   67.6929,       597,
    67.713,       621,
   67.7332,       615,
   67.7534,       624,
   67.7735,       573,
   67.7937,       592,
   67.8139,       602,
   67.8341,       606,
   67.8542,       611,
   67.8744,       567,
   67.8946,       617,
   67.9147,       631,
   67.9349,       593,
   67.9551,       651,
   67.9752,       636,
   67.9954,       612,
   68.0156,       604,
   68.0357,       626,
   68.0559,       669,
   68.0761,       582,
   68.0962,       624,
   68.1164,       596,
   68.1366,       598,
   68.1568,       600,
   68.1769,       609,
   68.1971,       625,
   68.2173,       610,
   68.2374,       645,
   68.2576,       646,
   68.2778,       594,
   68.2979,       588,
   68.3181,       653,
   68.3383,       587,
   68.3584,       613,
   68.3786,       655,
   68.3988,       593,
   68.4189,       594,
   68.4391,       587,
   68.4593,       617,
   68.4794,       583,
   68.4996,       636,
   68.5198,       630,
     68.54,       618,
   68.5601,       652,
   68.5803,       612,
   68.6005,       599,
   68.6206,       590,
   68.6408,       582,
    68.661,       653,
   68.6811,       665,
   68.7013,       648,
   68.7215,       594,
   68.7416,       602,
   68.7618,       567,
    68.782,       656,
   68.8021,       581,
   68.8223,       622,
   68.8425,       585,
   68.8626,       668,
   68.8828,       599,
    68.903,       606,
   68.9232,       610,
   68.9433,       579,
   68.9635,       592,
   68.9837,       656,
   69.0038,       584,
    69.024,       622,
   69.0442,       627,
   69.0643,       628,
   69.0845,       588,
   69.1047,       587,
   69.1248,       597,
    69.145,       598,
   69.1652,       628,
   69.1853,       619,
   69.2055,       599,
   69.2257,       614,
   69.2459,       624,
    69.266,       597,
   69.2862,       613,
   69.3064,       648,
   69.3265,       577,
   69.3467,       598,
   69.3669,       647,
    69.387,       591,
   69.4072,       653,
   69.4274,       574,
   69.4475,       593,
   69.4677,       600,
   69.4879,       613,
    69.508,       632,
   69.5282,       589,
   69.5484,       628,
   69.5685,       588,
   69.5887,       555,
   69.6089,       590,
   69.6291,       603,
   69.6492,       630,
   69.6694,       592,
   69.6896,       567,
   69.7097,       624,
   69.7299,       642,
   69.7501,       614,
   69.7702,       602,
   69.7904,       583,
   69.8106,       609,
   69.8307,       570,
   69.8509,       599,
   69.8711,       597,
   69.8912,       608,
   69.9114,       620,
   69.9316,       623,
   69.9517,       641,
   69.9719,       653,
   69.9921,       604,
   70.0123,       609,
   70.0324,       602,
   70.0526,       627,
   70.0728,       616,
   70.0929,       624,
   70.1131,       628,
   70.1333,       641,
   70.1534,       573,
   70.1736,       635,
   70.1938,       589,
   70.2139,       600,
   70.2341,       604,
   70.2543,       601,
   70.2744,       546,
   70.2946,       618,
   70.3148,       610,
    70.335,       621,
   70.3551,       646,
   70.3753,       619,
   70.3955,       657,
   70.4156,       612,
   70.4358,       630,
    70.456,       602,
   70.4761,       542,
   70.4963,       597,
   70.5165,       647,
   70.5366,       572,
   70.5568,       597,
    70.577,       588,
   70.5971,       600,
   70.6173,       637,
   70.6375,       650,
   70.6576,       667,
   70.6778,       623,
    70.698,       606,
   70.7182,       647,
   70.7383,       602,
   70.7585,       580,
   70.7787,       580,
   70.7988,       593,
    70.819,       563,
   70.8392,       592,
   70.8593,       587,
   70.8795,       635,
   70.8997,       624,
   70.9198,       602,
     70.94,       618,
   70.9602,       650,
   70.9803,       665,
   71.0005,       645,
   71.0207,       629,
   71.0409,       600,
    71.061,       616,
   71.0812,       585,
   71.1014,       643,
   71.1215,       605,
   71.1417,       664,
   71.1619,       609,
    71.182,       576,
   71.2022,       668,
   71.2224,       575,
   71.2425,       617,
   71.2627,       585,
   71.2829,       620,
    71.303,       602,
   71.3232,       531,
   71.3434,       577,
   71.3635,       614,
   71.3837,       628,
   71.4039,       622,
   71.4241,       600,
   71.4442,       637,
   71.4644,       603,
   71.4846,       631,
   71.5047,       644,
   71.5249,       639,
   71.5451,       661,
   71.5652,       617,
   71.5854,       635,
   71.6056,       622,
   71.6257,       659,
   71.6459,       622,
   71.6661,       604,
   71.6862,       609,
   71.7064,       638,
   71.7266,       611,
   71.7467,       610,
   71.7669,       636,
   71.7871,       594,
   71.8073,       626,
   71.8274,       628,
   71.8476,       586,
   71.8678,       618,
   71.8879,       625,
   71.9081,       587,
   71.9283,       620,
   71.9484,       631,
   71.9686,       627,
   71.9888,       603,
   72.0089,       658,
   72.0291,       589,
   72.0493,       611,
   72.0694,       632,
   72.0896,       628,
   72.1098,       633,
     72.13,       656,
   72.1501,       600,
   72.1703,       599,
   72.1905,       601,
   72.2106,       643,
   72.2308,       628,
    72.251,       612,
   72.2711,       632,
   72.2913,       661,
   72.3115,       634,
   72.3316,       660,
   72.3518,       658,
    72.372,       608,
   72.3921,       637,
   72.4123,       632,
   72.4325,       626,
   72.4526,       676,
   72.4728,       591,
    72.493,       632,
   72.5132,       647,
   72.5333,       622,
   72.5535,       657,
   72.5737,       629,
   72.5938,       631,
    72.614,       654,
   72.6342,       621,
   72.6543,       659,
   72.6745,       691,
   72.6947,       586,
   72.7148,       669,
    72.735,       597,
   72.7552,       613,
   72.7753,       605,
   72.7955,       649,
   72.8157,       651,
   72.8358,       650,
    72.856,       616,
   72.8762,       617,
   72.8964,       612,
   72.9165,       665,
   72.9367,       647,
   72.9569,       633,
    72.977,       685,
   72.9972,       612,
   73.0174,       642,
   73.0375,       618,
   73.0577,       633,
   73.0779,       630,
    73.098,       662,
   73.1182,       615,
   73.1384,       719,
   73.1585,       644,
   73.1787,       633,
   73.1989,       626,
   73.2191,       647,
   73.2392,       610,
   73.2594,       621,
   73.2796,       665,
   73.2997,       701,
   73.3199,       694,
   73.3401,       657,
   73.3602,       681,
   73.3804,       615,
   73.4006,       663,
   73.4207,       694,
   73.4409,       700,
   73.4611,       718,
   73.4812,       741,
   73.5014,       742,
   73.5216,       742,
   73.5417,       764,
   73.5619,       753,
   73.5821,       769,
   73.6023,       782,
   73.6224,       793,
   73.6426,       782,
   73.6628,       830,
   73.6829,       820,
   73.7031,       824,
   73.7233,       789,
   73.7434,       865,
   73.7636,       915,
   73.7838,       939,
   73.8039,       899,
   73.8241,       978,
   73.8443,       969,
   73.8644,       953,
   73.8846,      1087,
   73.9048,      1089,
   73.9249,      1106,
   73.9451,      1184,
   73.9653,      1207,
   73.9855,      1214,
   74.0056,      1300,
   74.0258,      1375,
    74.046,      1343,
   74.0661,      1427,
   74.0863,      1515,
   74.1065,      1659,
   74.1266,      1733,
   74.1468,      1835,
    74.167,      1897,
   74.1871,      1828,
   74.2073,      1682,
   74.2275,      1603,
   74.2476,      1592,
   74.2678,      1620,
    74.288,      1556,
   74.3082,      1496,
   74.3283,      1466,
   74.3485,      1545,
   74.3687,      1553,
   74.3888,      1514,
    74.409,      1363,
   74.4292,      1375,
   74.4493,      1278,
   74.4695,      1158,
   74.4897,      1134,
   74.5098,      1097,
     74.53,      1064,
   74.5502,      1087,
   74.5703,      1042,
   74.5905,       966,
   74.6107,       951,
   74.6308,       899,
    74.651,       909,
   74.6712,       891,
   74.6914,       866,
   74.7115,       841,
   74.7317,       828,
   74.7519,       845,
    74.772,       773,
   74.7922,       770,
   74.8124,       764,
   74.8325,       745,
   74.8527,       731,
   74.8729,       715,
    74.893,       752,
   74.9132,       719,
   74.9334,       724,
   74.9535,       767,
   74.9737,       696,
   74.9939,       714,
    75.014,       659,
   75.0342,       675,
   75.0544,       653,
   75.0746,       640,
   75.0947,       724,
   75.1149,       708,
   75.1351,       684,
   75.1552,       689,
   75.1754,       638,
   75.1956,       675,
   75.2157,       665,
   75.2359,       621,
   75.2561,       669,
   75.2762,       616,
   75.2964,       639,
   75.3166,       663,
   75.3367,       637,
   75.3569,       622,
   75.3771,       625,
   75.3973,       624,
   75.4174,       620,
   75.4376,       639,
   75.4578,       626,
   75.4779,       653,
   75.4981,       631,
   75.5183,       628,
   75.5384,       631,
   75.5586,       625,
   75.5788,       639,
   75.5989,       621,
   75.6191,       624,
   75.6393,       601,
   75.6594,       627,
   75.6796,       646,
   75.6998,       624,
   75.7199,       602,
   75.7401,       653,
   75.7603,       633,
   75.7805,       672,
   75.8006,       669,
   75.8208,       598,
    75.841,       587,
   75.8611,       639,
   75.8813,       656,
   75.9015,       609,
   75.9216,       629,
   75.9418,       609,
    75.962,       663,
   75.9821,       658,
   76.0023,       648,
   76.0225,       586,
   76.0426,       569,
   76.0628,       612,
    76.083,       627,
   76.1032,       640,
   76.1233,       571,
   76.1435,       587,
   76.1637,       643,
   76.1838,       618,
    76.204,       657,
   76.2242,       660,
   76.2443,       644,
   76.2645,       637,
   76.2847,       598,
   76.3048,       578,
    76.325,       632,
   76.3452,       624,
   76.3653,       619,
   76.3855,       651,
   76.4057,       599,
   76.4258,       600,
    76.446,       586,
   76.4662,       605,
   76.4864,       616,
   76.5065,       650,
   76.5267,       612,
   76.5469,       642,
    76.567,       629,
   76.5872,       664,
   76.6074,       639,
   76.6275,       603,
   76.6477,       592,
   76.6679,       635,
    76.688,       597,
   76.7082,       580,
   76.7284,       614,
   76.7485,       624,
   76.7687,       614,
   76.7889,       593,
    76.809,       633,
   76.8292,       569,
   76.8494,       645,
   76.8696,       610,
   76.8897,       605,
   76.9099,       624,
   76.9301,       623,
   76.9502,       615,
   76.9704,       634,
   76.9906,       569,
   77.0107,       593,
   77.0309,       556,
   77.0511,       584,
   77.0712,       548,
   77.0914,       603,
   77.1116,       594,
   77.1317,       618,
   77.1519,       651,
   77.1721,       620,
   77.1923,       620,
   77.2124,       551,
   77.2326,       627,
   77.2528,       594,
   77.2729,       625,
   77.2931,       595,
   77.3133,       616,
   77.3334,       583,
   77.3536,       606,
   77.3738,       595,
   77.3939,       636,
   77.4141,       586,
   77.4343,       616,
   77.4544,       608,
   77.4746,       606,
   77.4948,       556,
   77.5149,       601,
   77.5351,       619,
   77.5553,       601,
   77.5755,       613,
   77.5956,       590,
   77.6158,       649,
    77.636,       578,
   77.6561,       589,
   77.6763,       604,
   77.6965,       604,
   77.7166,       630,
   77.7368,       643,
    77.757,       634,
   77.7771,       582,
   77.7973,       590,
   77.8175,       648,
   77.8376,       594,
   77.8578,       598,
    77.878,       588,
   77.8981,       617,
   77.9183,       600,
   77.9385,       617,
   77.9587,       614,
   77.9788,       601,
    77.999,       582,
