;RAW4.00
[RawHeader]
Date=11/26/2025
EstimatedTotalTime=426.6
FurtherDQLReading=0
HardwareIndicator=65519
MeasuredTotalTime=4.29454
MeasurementFlag=1
NumberOfMeasuredRanges=1
NumberOfRanges=1
Time=02:30:32

[VarInfo]
Type=USER
Flags=0
Value=Lab Manager

[VarInfo]
Type=SAMPLEID
Flags=0
Value=Commander Sample ID

[VarInfo]
Type=COMMENT
Flags=0
Value=

[VarInfo]
Type=UTF
Flags=0
Value=

[VarInfo]
Type=CREATOR
Flags=0
Value=V5Converter

[VarInfo]
Type=CREATOR_VERSION
Flags=0
Value=4.4.16.0

[HardwareConfiguration]
AbsorptionFactor=9999
ActivateAbsorber=0
Alpha1=1.5406
Alpha2=1.54439
AlphaAverage=1.54184
AlphaRatio=0.5
Analyzer=0
Anode=Cu
AntiScatteringSlit=9999
BeamOpticsFlags=0
Beta=1.39222
BetaRelativeIntensity=0
DeactivateAbsorber=0
DetectorSlit=9999
DivergenceSlit=9999
GoniometerControl=0
GoniometerDiameter=282
GoniometerModel=256
GoniometerStage=7
Monochromator=0
NearSampleSlit=9999
PrimarySollerSlit=9999
SampleChanger=0
SecondSollerSlit=9999
SynchronousAxis=0
ThinFilmAttachment=9999
WaveUnit=A

[RangeHeader]
ActuallyUsedLambda=1.54184
AdditionalDetectorMask=257
DataRecordLength=4
DelayTime=0
DisplayPlaneNumber=0
EstimatedScanTime=427
ExtraParametersMask=0
GeneratorCurrent=10
GeneratorVoltage=30
Increment=0.0201685
Increment3=0
NumberOfCompletedData=1885
NumberOfCounts=1
NumberOfDetectors=0
NumberOfDrives=3
NumberOfEncoderDrives=0
NumberOfMeasuredData=1885
NumberOfVaryingParameters=0
RangeStartTime=0
RotationSpeed=0
ScanMode=1
ScanType=Locked Coupled
SimulatedMeasConditions=0
SlitChangerIn=0
SmootingWidth=0
Start=40.0015
Steps=1885
SynchronousRotation=0
Time=33

[VarInfo]
Type=PSD_DISCRIM
Flags=0
Value=0.11;0.5

[VarInfo]
Type=OPTICS_V5
Flags=0
Value=H4sIAAAAAAAEAO1d63KjOhJ+Fda/zqmtBIPtXKaITzm2J+OaOHbFTnKmtrZcBORYZzC4AOey//d99hl2X2x1QViIS8C3JBN+TCaodWm6+2vUUkfS/nieW9IjcD3o2GcV5bBakYBtOCa0H84qS396oBxV/mhqF44NnTnwgdt25gvHBrbf0X1dQq1t78uzB88qM99ffJHlp6enw6faoeM+yGq1qsh/9i9HxgzM9QNoe75uG6AStjJfb1WRbqEH7y1wpc/BWWXFR0joAM9w4cInL/Bj4UHLsSW+3oXrLBc9NBZ6t3Pgojcb3P8FDH+o+7OzitwBj9AAMt+CrxUfl1Lblu55QRehTORzoM8XqLDt2L4ObeBy/coBc6yHluEvdYtxoR6o1ePT02O5h8TkLue4tzhrTW2EZGjqqBswQr3oFvyXjl+9OdUtD2hyGln7c259hcAyrwHqHhq4EDFpA/KbJ8lNjfKD1ToCFipvdm00JDA1OUbR6Btwou9Ab2HpL824AjQ5tXK8m+bF4OrHhPzodEft64TGrBVWDOsoPhpP1bBWhrxWvISy1r0hIUP+4r8skMLHrm78xG8sGODQhXPdfSHkZBMMakgD9GxISBvSeHkPOIFIQeOidilHx44baRI9r5mSRmyEDSxUYBJZ3blu/xy4JnCvAfYzAL0wsdX3b8s5NVnMwIfj6+8T9KPV/l7IxHm5Jhp5z0OvBh9BE+kGCS98DAk920dCZMIVSikeHA9SJulgmhwp1bAq2ZMXfZT4B2LSAxc+QFu3ogSlwl6OWi7Ssb/0moPwnSLFGmsYPPedJdIj0qJQrgWE0MJ5JCOdEXICmjFtjmnJUA7J0tRxpRHQLUBtYA3AytxYcejGiMm4JZa46kmmLG0LrhEWBa3xcus++8A2MZDfDYZpCWdMkQKtj5nwHfcltGVFk+OFGseMJxH2qHoYWND7cnJosmJN5ku1uCnh1+H65qyTKx3Y545jAR1NEG5s6BPpdiDSG56bXcI59IlYwiKvWdVk7knrgKm+tPxb3VoCboigVyQ96CPXTshnFewlKri/oQta5l9LD8GnYEuZYx67mbHTJoqe6ZblPK0cjVCOarZnwPgJzFUVVqC1ESPOHKsWvx33pNH5Zl7erhEyxkg2xVq1lr7TdoHug6HrLIDrvzAWEyiR9/eIRfdMhLKr5fweuE21rslCEdaQRS08UPF//xMyUSUc9B0TNG8Quqbos4xMnTwz90Y+PzEHluy7tuWt5HgP/ND5vNXOHBXjLvaN2aNbYuh5A79Evm3IJvErCL6JJ23LP418rD3OPSHRTOHDEjnla/gw85sIdabECnU0BoKwUKWYS+vrz5fAfvBnTbXRwKJhj2nOjrJISkNktZevObqMVm/q5DL4SnFwGS02cm5pFninPwKqkpa1mOmKYIUieVuWOJh2nCVqyWzxf//ehzWm2Nxw9uJBQ7dIeQJnTA/KYaNePXrNFtfo7ca2MPfItOjcf/WMZelYS+paugfVBtErK9H60Ibz5bx5oBwenx4fndaUWv3kSK0pjePu32vVE4S4oAZGIvklvWZQ4W0Rs4b0UpC0Rk/7QJiajTD10yOsXjvdJsRYdyXGNhLfFkDGuto1yh6Bqz+IoV6M/ulxppzUt4kz1l2Js43EtwWcsa52jLNz4OupIMPET46w2qmqqttD2Kq7EmEbiW9jhK262jHCrvGaRirECHVXGHuvCFutth02NsJWrKMSVWsKbh08xTrZCZK+OsbSG7gQ2D5ZHRSgJJK3tspG1g4H057tH9XfH6CibEVXr/OjKbkXhfRCBYDfqOeDOWLs0nmABl3VvJn0rm5bl73OpP2tN9TkFYkJfAye/WbPftQtiMQzg4uVjCJaIvW07+CFjI1lEf6uyTEWsnm67F2lsnIJbSARW0kbWtlk6OEgY+yhA20/e3B1k8GZLoaD0auqCHeKD6S58wgk35HmwJjpNrYKCTmTxd/SeKxl8/ienF2WXefzdFk9bOTm6N5Lz546UqiqhAVciZbr3FOQY3BWIVUkVBrdJr+ZtC6H31rRcrGRhEeyyEjkXXKxo0bYURPZUVPYUbPYUQuzEywL8PxEyoQBQloib5PW7UUWe0HrokySmCrg8D78PeybkkWGzrvjVjIvuH4+FiIbUQEDqBXeyxN46LJSkY3uZbffvRqnSMV2TCAFbaXVSDlkQmfBvNq4EkHsASVZZdetcW+QpTTSOp+8YlOLgL9pYnk4ToQicvl10J4MrpMZJONJkeZyfMe6Ed+xvgA2skTfcYU8TFacvPmcsQFLZ8dr7r82tXQiP3O7dSw/voYXlO4q5vl5u6WEjcypLxqFfRNqVSHyCL4FKaFHctihVBMCjFp1f7FErbF+MBEXRsEvZLo55TW19tJ1sT+LmlpQuitTm7f2YWpolHD6sQ1TaySFsh/E0uKy2LulDZ0nkgHOmxQp25WV3aUEnW+xcHMnRJr5lluqhymm+EkWW+4491hde7Ul3ssWbV9+7YtfJA0UTQyNGXBfyVbbPA8ud74bklUw60j9YgWfilQ/I4dzraYmBmuZ2QhiKJW9qxqLdLI3h6IxR/YytzAXT1vD42MIIXVJnC4nR8cylyaJ7OZRhxZeJcCPHu2eWH2ZQFkmUJYJlGUCZZlA+fE2xcsEyvezJV4mUP6aCCsTKN8TxsoEyl8VZ2UC5XvCWZlA+ashrEygfE8IKxMoywTKMoGyTKAsEyjLBMoygbJMoCwTKMsEyjKBskygLBMoywTKMoGyTKAsEyjLBMoygbJMoHzr+KNMoCwTKD9tAiXLkUS/iumT7KzT+Cmg4tm7GScqd+cL/4UkG4arGcVOT+72h4PRhP4scnoyGTg0xcTzk2U+BzLzcGMl7XBjde+HGw8WbefceR5MR45lATfhiGNKyDjkmKsg/WbotmTQQ8ElNJZEifQE7N/XgX9k+LhXSSBnuYaE6hunwkb7FPSZfOxxRGTIPPKL8PePe2KymphYK0bAR+scevtxXAin6Q2diJrmRGpv50S+wmdgEkNlcw/RmVjQz3IliCz1U2CAaRv4kdXICV5EJGb6ELHy5h6E61FQZYr/YA2o98gntQ/sOmq5XMfxeudlE7OmVzSsTJpYMhZe0hcRy1SR/jGf/zPDjH/DR/7fA2QfErQ9hAVgol98R9I5hWWaMq5mhBds4KeJUp0oaQYcIb5mwIVtN52ZmPP5qH/5US30lx930PRnYm4HLtvZktP8/WxBxzgL44DNsuvjPeVdZqh+7nWGuODWWWeI97KTtI5vABumgB1a+LnBszXslNBZz+i3gpzt3wSirjOzGenzhQXuZgBYY/QC/KUgIkkjH65UJ0ChmfamMj+F+lCxGJtFbxiJ1dIisfpGkRjhMR6HvT9h3thLD5hkeHHgLInKwm1g17oJl16CldWVYB+fXrg3mE494KdZfesZevz3Iay2B1ceYybnbh1ywVU1LSlVPTypn6qNRkNN8LvHjcOTRv24dqQqvK8VhNAM7mETbitc+w7DEUCRgJl9i2FYh7v9roNCXwNnMmzhLkORh4SYKLFGsfsMwz42ifVFRj70nYaF9FrM/4zwzYaj4jcbRuW787sNw+F2cbvhyRss3uHlOks3wMyxzMQtgMsX+xm8pBxzcfnj6s/ujy654bCjSsOZ7olX4OYEsRyOEwezQMpa3mDWKOO8X3k4Wj2jProvYAvX6KYzLmrzl7v28CTPUlxNiU9Yi8wL0ecUu0XdWrmWfniNJk2pxn6HJHazGl4xZ9PpjyfkXwFHw4ba6R6gstmscZebgP09bgIKCIswkLYN2N/zNmAmj6JSs3YC+59rJ1Cp53Ii1c+wFVhGSkUjpbRAqXF4dHrSUJRqPWmBqqEcHldP68dqfQeB0sontAHGieA9hcKI4+SmzLSadMAw70kjnLfkkW8dVkPLMIDnOS4E3hoRE+Mi7j2jlLwRUvyl1/ekrIcPHRqtqcpiLudicNWekB9FHA7lZ+eh0Ri4qHQnkdHp3mdFwxkkShPAfO0EGXBRYgTUqKlErdE1Wb0CGJXZGHSdNqGDKCsJ1TJnP6vqMuJUZpxuDuAUxgVFpsREEgUYMFu+rxszPNBZ5WDPRwluc5pzmitr4SQ+y+l5TBQhKMMCjfMcZLfIWj48ALPjYkzSv8ZE3eHvWs9sIu2S3oNHTCEVRwtgwGnwt6KsUpyC4BLvvcgEK46DYs5u+K03mpAfRZxdFKHbnGBVi0yvQisOP5lEYfRDEPwf22IqXU7pckqXI7qcECvsd+8VLsZPznhGTjB6jZVIzZz8ZA+dc9yig6ZEJvFifFQxXo8YAd9H0PIkfi6GHAXNPKxILbzB7vVR6AbplI5NtLGOuVT/5i2e1Rn4EFu+VFtBkewhB6uqmiyUa3yqI/WAkWUTj/6JxSqYYK6D6Pv/u9RXv2COAAA=

[PSD]
ActualTwoTheta=9999
FirstUsedChannel=0
FixedPSD=0
PSDOpening=4.99171
PSDType=5

[Drive]
DriveFlags=1
DriveName=2Theta
DriveNumber=2
DriveOffset=0
OffsetIndex=0
OscillationAmplitude=0
OscillationSpeed=0
StartPosition=40.0015

[Drive]
DriveFlags=1
DriveName=Theta
DriveNumber=1
DriveOffset=0
OffsetIndex=0
OscillationAmplitude=0
OscillationSpeed=0
StartPosition=20.0007

[Drive]
DriveFlags=1
DriveName=Phi
DriveNumber=3
DriveOffset=0
OffsetIndex=0
OscillationAmplitude=0
OscillationSpeed=0
StartPosition=0

[Data]
     Angle,       PSD,
   40.0015,       659,
   40.0217,       619,
   40.0418,       620,
    40.062,       666,
   40.0822,       672,
   40.1023,       684,
   40.1225,       678,
   40.1427,       643,
   40.1628,       725,
    40.183,       693,
   40.2032,       686,
   40.2233,       699,
   40.2435,       631,
   40.2637,       671,
   40.2838,       666,
    40.304,       646,
   40.3242,       675,
   40.3444,       699,
   40.3645,       647,
   40.3847,       661,
   40.4049,       681,
    40.425,       637,
   40.4452,       674,
   40.4654,       681,
   40.4855,       670,
   40.5057,       669,
   40.5259,       665,
    40.546,       666,
   40.5662,       699,
   40.5864,       664,
   40.6065,       655,
   40.6267,       604,
   40.6469,       635,
   40.6671,       626,
   40.6872,       710,
   40.7074,       654,
   40.7276,       623,
   40.7477,       646,
   40.7679,       671,
   40.7881,       705,
   40.8082,       696,
   40.8284,       746,
   40.8486,       678,
   40.8687,       663,
   40.8889,       641,
   40.9091,       673,
   40.9292,       700,
   40.9494,       718,
   40.9696,       652,
   40.9897,       630,
   41.0099,       726,
   41.0301,       651,
   41.0503,       741,
   41.0704,       689,
   41.0906,       615,
   41.1108,       691,
   41.1309,       670,
   41.1511,       691,
   41.1713,       678,
   41.1914,       683,
   41.2116,       676,
   41.2318,       706,
   41.2519,       695,
   41.2721,       704,
   41.2923,       651,
   41.3124,       690,
   41.3326,       668,
   41.3528,       727,
   41.3729,       707,
   41.3931,       655,
   41.4133,       730,
   41.4335,       721,
   41.4536,       658,
   41.4738,       678,
    41.494,       671,
   41.5141,       646,
   41.5343,       711,
   41.5545,       721,
   41.5746,       724,
   41.5948,       714,
    41.615,       761,
   41.6351,       734,
   41.6553,       706,
   41.6755,       723,
   41.6956,       773,
   41.7158,       767,
    41.736,       752,
   41.7562,       762,
   41.7763,       705,
   41.7965,       746,
   41.8167,       754,
   41.8368,       750,
    41.857,       745,
   41.8772,       737,
   41.8973,       762,
   41.9175,       795,
   41.9377,       831,
   41.9578,       833,
    41.978,       807,
   41.9982,       813,
   42.0183,       841,
   42.0385,       808,
   42.0587,       800,
   42.0788,       854,
    42.099,       862,
   42.1192,       809,
   42.1394,       851,
   42.1595,       861,
   42.1797,       865,
   42.1999,       877,
     42.22,       836,
   42.2402,       891,
   42.2604,       866,
   42.2805,       846,
   42.3007,       841,
   42.3209,       901,
    42.341,       913,
   42.3612,       886,
   42.3814,       861,
   42.4015,       945,
   42.4217,       929,
   42.4419,       903,
    42.462,       991,
   42.4822,       929,
   42.5024,       963,
   42.5226,      1018,
   42.5427,       951,
   42.5629,       969,
   42.5831,       951,
   42.6032,       935,
   42.6234,      1030,
   42.6436,      1020,
   42.6637,      1032,
   42.6839,      1078,
   42.7041,      1065,
   42.7242,      1075,
   42.7444,      1103,
   42.7646,      1152,
   42.7847,      1119,
   42.8049,      1193,
   42.8251,      1129,
   42.8453,      1267,
   42.8654,      1246,
   42.8856,      1382,
   42.9058,      1343,
   42.9259,      1371,
   42.9461,      1436,
   42.9663,      1603,
   42.9864,      1585,
   43.0066,      1622,
   43.0268,      1808,
   43.0469,      1888,
   43.0671,      2093,
   43.0873,      2222,
   43.1074,      2314,
   43.1276,      2491,
   43.1478,      2765,
   43.1679,      2977,
   43.1881,      3203,
   43.2083,      3669,
   43.2285,      4156,
   43.2486,      4708,
   43.2688,      5413,
    43.289,      6084,
   43.3091,      7037,
   43.3293,      8271,
   43.3495,      9955,
   43.3696,     11437,
   43.3898,     13733,
     43.41,     17251,
   43.4301,     22243,
   43.4503,     26608,
   43.4705,     24988,
   43.4906,     20662,
   43.5108,     18080,
    43.531,     18030,
   43.5511,     18790,
   43.5713,     18136,
   43.5915,     15433,
   43.6117,     11938,
   43.6318,      9725,
    43.652,      8280,
   43.6722,      7169,
   43.6923,      6103,
   43.7125,      5280,
   43.7327,      4689,
   43.7528,      4190,
    43.773,      3824,
   43.7932,      3413,
   43.8133,      3103,
   43.8335,      2806,
   43.8537,      2511,
   43.8738,      2346,
    43.894,      2236,
   43.9142,      2076,
   43.9344,      2024,
   43.9545,      1849,
   43.9747,      1718,
   43.9949,      1632,
    44.015,      1547,
   44.0352,      1479,
   44.0554,      1478,
   44.0755,      1447,
   44.0957,      1413,
   44.1159,      1331,
    44.136,      1303,
   44.1562,      1225,
   44.1764,      1235,
   44.1965,      1166,
   44.2167,      1157,
   44.2369,      1137,
    44.257,      1145,
   44.2772,      1137,
   44.2974,      1124,
   44.3176,      1112,
   44.3377,      1036,
   44.3579,       996,
   44.3781,      1043,
   44.3982,      1022,
   44.4184,      1048,
   44.4386,      1002,
   44.4587,      1063,
   44.4789,       973,
   44.4991,       994,
   44.5192,       966,
   44.5394,       971,
   44.5596,       965,
   44.5797,       965,
   44.5999,       921,
   44.6201,       912,
   44.6402,       885,
   44.6604,       905,
   44.6806,       905,
   44.7008,       893,
   44.7209,       843,
   44.7411,       899,
   44.7613,       837,
   44.7814,       863,
   44.8016,       878,
   44.8218,       865,
   44.8419,       855,
   44.8621,       812,
   44.8823,       898,
   44.9024,       864,
   44.9226,       855,
   44.9428,       900,
   44.9629,       894,
   44.9831,       846,
   45.0033,       839,
   45.0235,       827,
   45.0436,       845,
   45.0638,       784,
    45.084,       821,
   45.1041,       793,
   45.1243,       885,
   45.1445,       861,
   45.1646,       806,
   45.1848,       794,
    45.205,       786,
   45.2251,       832,
   45.2453,       804,
   45.2655,       826,
   45.2856,       806,
   45.3058,       828,
    45.326,       799,
   45.3461,       833,
   45.3663,       848,
   45.3865,       827,
   45.4067,       791,
   45.4268,       806,
    45.447,       783,
   45.4672,       784,
   45.4873,       798,
   45.5075,       822,
   45.5277,       824,
   45.5478,       806,
    45.568,       794,
   45.5882,       753,
   45.6083,       828,
   45.6285,       824,
   45.6487,       782,
   45.6688,       758,
    45.689,       801,
   45.7092,       801,
   45.7294,       756,
   45.7495,       746,
   45.7697,       765,
   45.7899,       783,
     45.81,       814,
   45.8302,       819,
   45.8504,       745,
   45.8705,       741,
   45.8907,       727,
   45.9109,       787,
    45.931,       819,
   45.9512,       768,
   45.9714,       734,
   45.9915,       725,
   46.0117,       761,
   46.0319,       773,
    46.052,       796,
   46.0722,       759,
   46.0924,       760,
   46.1126,       787,
   46.1327,       729,
   46.1529,       749,
   46.1731,       795,
   46.1932,       796,
   46.2134,       779,
   46.2336,       801,
   46.2537,       771,
   46.2739,       730,
   46.2941,       739,
   46.3142,       798,
   46.3344,       714,
   46.3546,       768,
   46.3747,       799,
   46.3949,       740,
   46.4151,       741,
   46.4352,       796,
   46.4554,       720,
   46.4756,       708,
   46.4958,       732,
   46.5159,       789,
   46.5361,       719,
   46.5563,       782,
   46.5764,       735,
   46.5966,       734,
   46.6168,       715,
   46.6369,       778,
   46.6571,       764,
   46.6773,       727,
   46.6974,       716,
   46.7176,       718,
   46.7378,       780,
   46.7579,       738,
   46.7781,       752,
   46.7983,       770,
   46.8185,       728,
   46.8386,       739,
   46.8588,       706,
    46.879,       727,
   46.8991,       742,
   46.9193,       727,
   46.9395,       773,
   46.9596,       758,
   46.9798,       734,
        47,       784,
   47.0201,       792,
   47.0403,       734,
   47.0605,       748,
   47.0806,       724,
   47.1008,       733,
    47.121,       772,
   47.1411,       743,
   47.1613,       734,
   47.1815,       715,
   47.2017,       713,
   47.2218,       741,
    47.242,       758,
   47.2622,       784,
   47.2823,       770,
   47.3025,       725,
   47.3227,       739,
   47.3428,       751,
    47.363,       717,
   47.3832,       731,
   47.4033,       781,
   47.4235,       710,
   47.4437,       776,
   47.4638,       723,
    47.484,       718,
   47.5042,       720,
   47.5243,       712,
   47.5445,       803,
   47.5647,       759,
   47.5849,       709,
    47.605,       719,
   47.6252,       761,
   47.6454,       730,
   47.6655,       720,
   47.6857,       722,
   47.7059,       739,
    47.726,       727,
   47.7462,       733,
   47.7664,       710,
   47.7865,       706,
   47.8067,       735,
   47.8269,       760,
    47.847,       718,
   47.8672,       732,
   47.8874,       731,
   47.9076,       668,
   47.9277,       733,
   47.9479,       697,
   47.9681,       737,
   47.9882,       722,
   48.0084,       656,
   48.0286,       747,
   48.0487,       716,
   48.0689,       723,
   48.0891,       713,
   48.1092,       713,
   48.1294,       764,
   48.1496,       710,
   48.1697,       676,
   48.1899,       757,
   48.2101,       702,
   48.2302,       725,
   48.2504,       720,
   48.2706,       750,
   48.2908,       704,
   48.3109,       750,
   48.3311,       761,
   48.3513,       736,
   48.3714,       755,
   48.3916,       743,
   48.4118,       768,
   48.4319,       726,
   48.4521,       726,
   48.4723,       757,
   48.4924,       730,
   48.5126,       705,
   48.5328,       736,
   48.5529,       769,
   48.5731,       768,
   48.5933,       734,
   48.6134,       781,
   48.6336,       767,
   48.6538,       751,
    48.674,       701,
   48.6941,       760,
   48.7143,       745,
   48.7345,       780,
   48.7546,       800,
   48.7748,       698,
    48.795,       751,
   48.8151,       790,
   48.8353,       788,
   48.8555,       738,
   48.8756,       799,
   48.8958,       803,
    48.916,       804,
   48.9361,       756,
   48.9563,       824,
   48.9765,       784,
   48.9967,       762,
   49.0168,       762,
    49.037,       792,
   49.0572,       789,
   49.0773,       787,
   49.0975,       773,
   49.1177,       761,
   49.1378,       778,
    49.158,       825,
   49.1782,       797,
   49.1983,       799,
   49.2185,       822,
   49.2387,       739,
   49.2588,       766,
    49.279,       818,
   49.2992,       836,
   49.3193,       835,
   49.3395,       793,
   49.3597,       820,
   49.3799,       862,
      49.4,       840,
   49.4202,       850,
   49.4404,       815,
   49.4605,       876,
   49.4807,       844,
   49.5009,       892,
    49.521,       894,
   49.5412,       846,
   49.5614,       832,
   49.5815,       860,
   49.6017,       899,
   49.6219,       895,
    49.642,       924,
   49.6622,       901,
   49.6824,       937,
   49.7025,       960,
   49.7227,       899,
   49.7429,       938,
   49.7631,      1050,
   49.7832,       942,
   49.8034,      1018,
   49.8236,      1033,
   49.8437,      1073,
   49.8639,      1001,
   49.8841,      1064,
   49.9042,      1123,
   49.9244,      1081,
   49.9446,      1106,
   49.9647,      1151,
   49.9849,      1204,
   50.0051,      1177,
   50.0252,      1244,
   50.0454,      1346,
   50.0656,      1392,
   50.0858,      1443,
   50.1059,      1442,
   50.1261,      1494,
   50.1463,      1549,
   50.1664,      1565,
   50.1866,      1780,
   50.2068,      1755,
   50.2269,      1911,
   50.2471,      1988,
   50.2673,      2054,
   50.2874,      2213,
   50.3076,      2332,
   50.3278,      2518,
   50.3479,      2565,
   50.3681,      2765,
   50.3883,      2923,
   50.4084,      3027,
   50.4286,      3238,
   50.4488,      3436,
    50.469,      3673,
   50.4891,      3774,
   50.5093,      4104,
   50.5295,      4747,
   50.5496,      5443,
   50.5698,      6013,
     50.59,      5856,
   50.6101,      5334,
   50.6303,      4738,
   50.6505,      4503,
   50.6706,      4493,
   50.6908,      4716,
    50.711,      4689,
   50.7311,      4407,
   50.7513,      3883,
   50.7715,      3378,
   50.7917,      3172,
   50.8118,      2985,
    50.832,      2834,
   50.8522,      2621,
   50.8723,      2434,
   50.8925,      2287,
   50.9127,      2226,
   50.9328,      2053,
    50.953,      1899,
   50.9732,      1833,
   50.9933,      1747,
   51.0135,      1652,
   51.0337,      1582,
   51.0538,      1534,
    51.074,      1485,
   51.0942,      1381,
   51.1143,      1343,
   51.1345,      1265,
   51.1547,      1250,
   51.1749,      1231,
    51.195,      1224,
   51.2152,      1132,
   51.2354,      1066,
   51.2555,      1086,
   51.2757,      1062,
   51.2959,      1013,
    51.316,       997,
   51.3362,      1057,
   51.3564,       954,
   51.3765,       944,
   51.3967,       927,
   51.4169,       942,
    51.437,       903,
   51.4572,       904,
   51.4774,       829,
   51.4975,       851,
   51.5177,       882,
   51.5379,       868,
   51.5581,       827,
   51.5782,       847,
   51.5984,       813,
   51.6186,       807,
   51.6387,       774,
   51.6589,       747,
   51.6791,       832,
   51.6992,       797,
   51.7194,       806,
   51.7396,       751,
   51.7597,       789,
   51.7799,       802,
   51.8001,       738,
   51.8202,       780,
   51.8404,       771,
   51.8606,       784,
   51.8808,       766,
   51.9009,       716,
   51.9211,       751,
   51.9413,       740,
   51.9614,       777,
   51.9816,       750,
   52.0018,       790,
   52.0219,       782,
   52.0421,       726,
   52.0623,       718,
   52.0824,       727,
   52.1026,       745,
   52.1228,       734,
   52.1429,       740,
   52.1631,       726,
   52.1833,       709,
   52.2034,       705,
   52.2236,       717,
   52.2438,       736,
    52.264,       733,
   52.2841,       747,
   52.3043,       700,
   52.3245,       691,
   52.3446,       648,
   52.3648,       700,
    52.385,       728,
   52.4051,       690,
   52.4253,       686,
   52.4455,       693,
   52.4656,       723,
   52.4858,       682,
    52.506,       702,
   52.5261,       701,
   52.5463,       716,
   52.5665,       729,
   52.5866,       709,
   52.6068,       678,
    52.627,       719,
   52.6472,       690,
   52.6673,       666,
   52.6875,       694,
   52.7077,       689,
   52.7278,       696,
    52.748,       653,
   52.7682,       659,
   52.7883,       668,
   52.8085,       692,
   52.8287,       695,
   52.8488,       663,
    52.869,       681,
   52.8892,       692,
   52.9093,       653,
   52.9295,       673,
   52.9497,       739,
   52.9699,       671,
     52.99,       674,
   53.0102,       689,
   53.0304,       643,
   53.0505,       653,
   53.0707,       668,
   53.0909,       687,
    53.111,       718,
   53.1312,       701,
   53.1514,       706,
   53.1715,       697,
   53.1917,       746,
   53.2119,       623,
    53.232,       651,
   53.2522,       654,
   53.2724,       675,
   53.2925,       722,
   53.3127,       704,
   53.3329,       629,
   53.3531,       692,
   53.3732,       698,
   53.3934,       650,
   53.4136,       668,
   53.4337,       683,
   53.4539,       677,
   53.4741,       662,
   53.4942,       711,
   53.5144,       660,
   53.5346,       669,
   53.5547,       706,
   53.5749,       691,
   53.5951,       696,
   53.6152,       668,
   53.6354,       635,
   53.6556,       701,
   53.6757,       680,
   53.6959,       683,
   53.7161,       623,
   53.7363,       633,
   53.7564,       649,
   53.7766,       629,
   53.7968,       638,
   53.8169,       698,
   53.8371,       670,
   53.8573,       665,
   53.8774,       647,
   53.8976,       699,
   53.9178,       714,
   53.9379,       649,
   53.9581,       658,
   53.9783,       633,
   53.9984,       659,
   54.0186,       648,
   54.0388,       681,
    54.059,       653,
   54.0791,       683,
   54.0993,       658,
   54.1195,       692,
   54.1396,       667,
   54.1598,       629,
     54.18,       708,
   54.2001,       656,
   54.2203,       670,
   54.2405,       662,
   54.2606,       704,
   54.2808,       734,
    54.301,       644,
   54.3211,       650,
   54.3413,       682,
   54.3615,       663,
   54.3816,       678,
   54.4018,       627,
    54.422,       622,
   54.4422,       662,
   54.4623,       618,
   54.4825,       633,
   54.5027,       623,
   54.5228,       680,
    54.543,       699,
   54.5632,       659,
   54.5833,       598,
   54.6035,       664,
   54.6237,       643,
   54.6438,       654,
    54.664,       660,
   54.6842,       675,
   54.7043,       675,
   54.7245,       643,
   54.7447,       650,
   54.7648,       665,
    54.785,       635,
   54.8052,       663,
   54.8254,       640,
   54.8455,       624,
   54.8657,       686,
   54.8859,       652,
    54.906,       656,
   54.9262,       647,
   54.9464,       648,
   54.9665,       681,
   54.9867,       669,
   55.0069,       688,
    55.027,       663,
   55.0472,       624,
   55.0674,       646,
   55.0875,       642,
   55.1077,       670,
   55.1279,       645,
   55.1481,       653,
   55.1682,       699,
   55.1884,       616,
   55.2086,       638,
   55.2287,       633,
   55.2489,       671,
   55.2691,       627,
   55.2892,       624,
   55.3094,       644,
   55.3296,       668,
   55.3497,       668,
   55.3699,       640,
   55.3901,       623,
   55.4102,       709,
   55.4304,       633,
   55.4506,       707,
   55.4707,       619,
   55.4909,       681,
   55.5111,       654,
   55.5313,       646,
   55.5514,       681,
   55.5716,       674,
   55.5918,       652,
   55.6119,       650,
   55.6321,       657,
   55.6523,       653,
   55.6724,       656,
   55.6926,       659,
   55.7128,       622,
   55.7329,       672,
   55.7531,       644,
   55.7733,       660,
   55.7934,       675,
   55.8136,       695,
   55.8338,       631,
    55.854,       676,
   55.8741,       667,
   55.8943,       674,
   55.9145,       661,
   55.9346,       655,
   55.9548,       651,
    55.975,       675,
   55.9951,       630,
   56.0153,       654,
   56.0355,       660,
   56.0556,       633,
   56.0758,       651,
    56.096,       647,
   56.1161,       610,
   56.1363,       648,
   56.1565,       680,
   56.1766,       651,
   56.1968,       690,
    56.217,       589,
   56.2372,       626,
   56.2573,       631,
   56.2775,       691,
   56.2977,       613,
   56.3178,       658,
    56.338,       615,
   56.3582,       650,
   56.3783,       706,
   56.3985,       684,
   56.4187,       618,
   56.4388,       635,
    56.459,       617,
   56.4792,       678,
   56.4993,       666,
   56.5195,       701,
   56.5397,       626,
   56.5598,       651,
     56.58,       618,
   56.6002,       607,
   56.6204,       633,
   56.6405,       632,
   56.6607,       690,
   56.6809,       620,
    56.701,       696,
   56.7212,       636,
   56.7414,       657,
   56.7615,       694,
   56.7817,       602,
   56.8019,       601,
    56.822,       619,
   56.8422,       652,
   56.8624,       634,
   56.8825,       669,
   56.9027,       654,
   56.9229,       620,
   56.9431,       645,
   56.9632,       691,
   56.9834,       658,
   57.0036,       620,
   57.0237,       668,
   57.0439,       653,
   57.0641,       602,
   57.0842,       653,
   57.1044,       637,
   57.1246,       677,
   57.1447,       641,
   57.1649,       672,
   57.1851,       638,
   57.2052,       625,
   57.2254,       646,
   57.2456,       625,
   57.2657,       623,
   57.2859,       634,
   57.3061,       630,
   57.3263,       656,
   57.3464,       609,
   57.3666,       618,
   57.3868,       625,
   57.4069,       650,
   57.4271,       676,
   57.4473,       625,
   57.4674,       660,
   57.4876,       637,
   57.5078,       703,
   57.5279,       658,
   57.5481,       601,
   57.5683,       662,
   57.5884,       630,
   57.6086,       622,
   57.6288,       679,
   57.6489,       693,
   57.6691,       635,
   57.6893,       643,
   57.7095,       655,
   57.7296,       654,
   57.7498,       619,
     57.77,       615,
   57.7901,       626,
   57.8103,       660,
   57.8305,       591,
   57.8506,       611,
   57.8708,       646,
    57.891,       641,
   57.9111,       615,
   57.9313,       628,
   57.9515,       645,
   57.9716,       633,
   57.9918,       697,
    58.012,       637,
   58.0322,       596,
   58.0523,       637,
   58.0725,       617,
   58.0927,       622,
   58.1128,       655,
    58.133,       657,
   58.1532,       664,
   58.1733,       623,
   58.1935,       595,
   58.2137,       656,
   58.2338,       640,
    58.254,       626,
   58.2742,       590,
   58.2943,       678,
   58.3145,       631,
   58.3347,       644,
   58.3548,       656,
    58.375,       626,
   58.3952,       633,
   58.4154,       636,
   58.4355,       662,
   58.4557,       643,
   58.4759,       645,
    58.496,       620,
   58.5162,       642,
   58.5364,       614,
   58.5565,       663,
   58.5767,       643,
   58.5969,       661,
    58.617,       667,
   58.6372,       611,
   58.6574,       625,
   58.6775,       667,
   58.6977,       638,
   58.7179,       656,
    58.738,       629,
   58.7582,       611,
   58.7784,       628,
   58.7986,       637,
   58.8187,       629,
   58.8389,       605,
   58.8591,       683,
   58.8792,       637,
   58.8994,       614,
   58.9196,       636,
   58.9397,       646,
   58.9599,       675,
   58.9801,       645,
   59.0002,       632,
   59.0204,       607,
   59.0406,       621,
   59.0607,       689,
   59.0809,       624,
   59.1011,       651,
   59.1213,       622,
   59.1414,       622,
   59.1616,       621,
   59.1818,       628,
   59.2019,       614,
   59.2221,       604,
   59.2423,       625,
   59.2624,       634,
   59.2826,       648,
   59.3028,       628,
   59.3229,       682,
   59.3431,       610,
   59.3633,       630,
   59.3834,       637,
   59.4036,       645,
   59.4238,       622,
   59.4439,       623,
   59.4641,       594,
   59.4843,       639,
   59.5045,       649,
   59.5246,       614,
   59.5448,       665,
    59.565,       616,
   59.5851,       617,
   59.6053,       609,
   59.6255,       653,
   59.6456,       645,
   59.6658,       605,
    59.686,       634,
   59.7061,       642,
   59.7263,       629,
   59.7465,       634,
   59.7666,       621,
   59.7868,       597,
    59.807,       636,
   59.8271,       638,
   59.8473,       641,
   59.8675,       613,
   59.8877,       592,
   59.9078,       648,
    59.928,       579,
   59.9482,       619,
   59.9683,       639,
   59.9885,       582,
   60.0087,       653,
   60.0288,       635,
    60.049,       653,
   60.0692,       661,
   60.0893,       608,
   60.1095,       629,
   60.1297,       635,
   60.1498,       621,
     60.17,       641,
   60.1902,       596,
   60.2104,       638,
   60.2305,       591,
   60.2507,       623,
   60.2709,       633,
    60.291,       597,
   60.3112,       616,
   60.3314,       653,
   60.3515,       595,
   60.3717,       665,
   60.3919,       623,
    60.412,       568,
   60.4322,       598,
   60.4524,       646,
   60.4725,       599,
   60.4927,       629,
   60.5129,       614,
    60.533,       669,
   60.5532,       655,
   60.5734,       632,
   60.5936,       637,
   60.6137,       602,
   60.6339,       665,
   60.6541,       627,
   60.6742,       663,
   60.6944,       656,
   60.7146,       605,
   60.7347,       622,
   60.7549,       632,
   60.7751,       651,
   60.7952,       628,
   60.8154,       641,
   60.8356,       632,
   60.8557,       609,
   60.8759,       641,
   60.8961,       655,
   60.9163,       625,
   60.9364,       610,
   60.9566,       580,
   60.9768,       631,
   60.9969,       633,
   61.0171,       641,
   61.0373,       669,
   61.0574,       612,
   61.0776,       602,
   61.0978,       628,
   61.1179,       652,
   61.1381,       641,
   61.1583,       635,
   61.1784,       681,
   61.1986,       630,
   61.2188,       606,
   61.2389,       599,
   61.2591,       624,
   61.2793,       603,
   61.2995,       623,
   61.3196,       610,
   61.3398,       616,
     61.36,       635,
   61.3801,       609,
   61.4003,       654,
   61.4205,       608,
   61.4406,       647,
   61.4608,       621,
    61.481,       631,
   61.5011,       618,
   61.5213,       642,
   61.5415,       670,
   61.5616,       622,
   61.5818,       592,
    61.602,       610,
   61.6221,       614,
   61.6423,       601,
   61.6625,       628,
   61.6827,       617,
   61.7028,       608,
    61.723,       636,
   61.7432,       604,
   61.7633,       573,
   61.7835,       597,
   61.8037,       610,
   61.8238,       601,
    61.844,       587,
   61.8642,       621,
   61.8843,       613,
   61.9045,       650,
   61.9247,       625,
   61.9448,       623,
    61.965,       602,
   61.9852,       621,
   62.0054,       668,
   62.0255,       601,
   62.0457,       588,
   62.0659,       602,
    62.086,       590,
   62.1062,       629,
   62.1264,       620,
   62.1465,       628,
   62.1667,       601,
   62.1869,       601,
    62.207,       633,
   62.2272,       612,
   62.2474,       635,
   62.2675,       623,
   62.2877,       634,
   62.3079,       582,
    62.328,       611,
   62.3482,       621,
   62.3684,       633,
   62.3886,       601,
   62.4087,       626,
   62.4289,       679,
   62.4491,       611,
   62.4692,       605,
   62.4894,       604,
   62.5096,       596,
   62.5297,       581,
   62.5499,       585,
   62.5701,       626,
   62.5902,       633,
   62.6104,       567,
   62.6306,       643,
   62.6507,       616,
   62.6709,       596,
   62.6911,       625,
   62.7112,       633,
   62.7314,       603,
   62.7516,       667,
   62.7718,       634,
   62.7919,       572,
   62.8121,       625,
   62.8323,       596,
   62.8524,       613,
   62.8726,       623,
   62.8928,       590,
   62.9129,       600,
   62.9331,       629,
   62.9533,       645,
   62.9734,       604,
   62.9936,       594,
   63.0138,       658,
   63.0339,       616,
   63.0541,       643,
   63.0743,       620,
   63.0945,       650,
   63.1146,       676,
   63.1348,       588,
    63.155,       642,
   63.1751,       646,
   63.1953,       627,
   63.2155,       657,
   63.2356,       623,
   63.2558,       641,
    63.276,       608,
   63.2961,       645,
   63.3163,       617,
   63.3365,       591,
   63.3566,       624,
   63.3768,       573,
    63.397,       577,
   63.4171,       662,
   63.4373,       641,
   63.4575,       617,
   63.4777,       589,
   63.4978,       634,
    63.518,       618,
   63.5382,       651,
   63.5583,       631,
   63.5785,       573,
   63.5987,       639,
   63.6188,       655,
    63.639,       672,
   63.6592,       642,
   63.6793,       634,
   63.6995,       635,
   63.7197,       617,
   63.7398,       603,
     63.76,       605,
   63.7802,       606,
   63.8003,       625,
   63.8205,       605,
   63.8407,       603,
   63.8609,       642,
    63.881,       672,
   63.9012,       587,
   63.9214,       622,
   63.9415,       662,
   63.9617,       623,
   63.9819,       573,
    64.002,       636,
   64.0222,       655,
   64.0424,       622,
   64.0625,       607,
   64.0827,       572,
   64.1029,       617,
    64.123,       621,
   64.1432,       578,
   64.1634,       582,
   64.1836,       646,
   64.2037,       593,
   64.2239,       630,
   64.2441,       613,
   64.2642,       622,
   64.2844,       591,
   64.3046,       619,
   64.3247,       618,
   64.3449,       650,
   64.3651,       595,
   64.3852,       626,
   64.4054,       621,
   64.4256,       602,
   64.4457,       621,
   64.4659,       646,
   64.4861,       586,
   64.5062,       602,
   64.5264,       653,
   64.5466,       606,
   64.5668,       660,
   64.5869,       649,
   64.6071,       615,
   64.6273,       626,
   64.6474,       642,
   64.6676,       626,
   64.6878,       639,
   64.7079,       647,
   64.7281,       634,
   64.7483,       622,
   64.7684,       616,
   64.7886,       610,
   64.8088,       606,
   64.8289,       602,
   64.8491,       617,
   64.8693,       611,
   64.8894,       607,
   64.9096,       627,
   64.9298,       648,
     64.95,       618,
   64.9701,       592,
   64.9903,       597,
   65.0105,       595,
   65.0306,       604,
   65.0508,       563,
    65.071,       608,
   65.0911,       583,
   65.1113,       624,
   65.1315,       619,
   65.1516,       587,
   65.1718,       595,
    65.192,       653,
   65.2121,       628,
   65.2323,       597,
   65.2525,       634,
   65.2727,       574,
   65.2928,       577,
    65.313,       621,
   65.3332,       626,
   65.3533,       651,
   65.3735,       625,
   65.3937,       650,
   65.4138,       625,
    65.434,       602,
   65.4542,       622,
   65.4743,       610,
   65.4945,       651,
   65.5147,       629,
   65.5348,       602,
    65.555,       618,
   65.5752,       584,
   65.5953,       615,
   65.6155,       591,
   65.6357,       582,
   65.6559,       598,
    65.676,       623,
   65.6962,       641,
   65.7164,       629,
   65.7365,       658,
   65.7567,       646,
   65.7769,       600,
    65.797,       658,
   65.8172,       637,
   65.8374,       617,
   65.8575,       570,
   65.8777,       603,
   65.8979,       600,
    65.918,       587,
   65.9382,       613,
   65.9584,       609,
   65.9786,       551,
   65.9987,       576,
   66.0189,       637,
   66.0391,       688,
   66.0592,       592,
   66.0794,       639,
   66.0996,       610,
   66.1197,       616,
   66.1399,       640,
   66.1601,       654,
   66.1802,       645,
   66.2004,       584,
   66.2206,       625,
   66.2407,       610,
   66.2609,       615,
   66.2811,       647,
   66.3012,       629,
   66.3214,       595,
   66.3416,       596,
   66.3618,       623,
   66.3819,       637,
   66.4021,       624,
   66.4223,       602,
   66.4424,       628,
   66.4626,       633,
   66.4828,       609,
   66.5029,       613,
   66.5231,       620,
   66.5433,       643,
   66.5634,       602,
   66.5836,       579,
   66.6038,       625,
   66.6239,       608,
   66.6441,       679,
   66.6643,       628,
   66.6844,       634,
   66.7046,       607,
   66.7248,       631,
    66.745,       650,
   66.7651,       671,
   66.7853,       624,
   66.8055,       589,
   66.8256,       598,
   66.8458,       583,
    66.866,       617,
   66.8861,       619,
   66.9063,       623,
   66.9265,       629,
   66.9466,       611,
   66.9668,       639,
    66.987,       585,
   67.0071,       622,
   67.0273,       615,
   67.0475,       601,
   67.0677,       585,
   67.0878,       590,
    67.108,       631,
   67.1282,       613,
   67.1483,       622,
   67.1685,       603,
   67.1887,       607,
   67.2088,       630,
    67.229,       596,
   67.2492,       624,
   67.2693,       648,
   67.2895,       622,
   67.3097,       635,
   67.3298,       566,
     67.35,       640,
   67.3702,       611,
   67.3903,       607,
   67.4105,       586,
   67.4307,       653,
   67.4509,       604,
    67.471,       615,
   67.4912,       598,
   67.5114,       629,
   67.5315,       613,
   67.5517,       610,
   67.5719,       642,
    67.592,       596,
   67.6122,       575,
   67.6324,       603,
   67.6525,       622,
   67.6727,       617,
   67.6929,       618,
    67.713,       643,
   67.7332,       620,
   67.7534,       637,
   67.7735,       635,
   67.7937,       563,
   67.8139,       627,
   67.8341,       640,
   67.8542,       608,
   67.8744,       606,
   67.8946,       599,
   67.9147,       583,
   67.9349,       611,
   67.9551,       627,
   67.9752,       621,
   67.9954,       588,
   68.0156,       652,
   68.0357,       612,
   68.0559,       598,
   68.0761,       621,
   68.0962,       639,
   68.1164,       583,
   68.1366,       598,
   68.1568,       639,
   68.1769,       617,
   68.1971,       586,
   68.2173,       628,
   68.2374,       643,
   68.2576,       630,
   68.2778,       564,
   68.2979,       617,
   68.3181,       602,
   68.3383,       667,
   68.3584,       621,
   68.3786,       606,
   68.3988,       627,
   68.4189,       657,
   68.4391,       576,
   68.4593,       610,
   68.4794,       606,
   68.4996,       620,
   68.5198,       611,
     68.54,       618,
   68.5601,       629,
   68.5803,       670,
   68.6005,       630,
   68.6206,       618,
   68.6408,       608,
    68.661,       644,
   68.6811,       615,
   68.7013,       635,
   68.7215,       584,
   68.7416,       630,
   68.7618,       618,
    68.782,       574,
   68.8021,       648,
   68.8223,       629,
   68.8425,       577,
   68.8626,       673,
   68.8828,       604,
    68.903,       638,
   68.9232,       594,
   68.9433,       603,
   68.9635,       576,
   68.9837,       625,
   69.0038,       602,
    69.024,       623,
   69.0442,       621,
   69.0643,       594,
   69.0845,       585,
   69.1047,       612,
   69.1248,       606,
    69.145,       647,
   69.1652,       629,
   69.1853,       613,
   69.2055,       624,
   69.2257,       600,
   69.2459,       599,
    69.266,       606,
   69.2862,       632,
   69.3064,       634,
   69.3265,       625,
   69.3467,       591,
   69.3669,       573,
    69.387,       553,
   69.4072,       590,
   69.4274,       575,
   69.4475,       614,
   69.4677,       635,
   69.4879,       658,
    69.508,       619,
   69.5282,       628,
   69.5484,       634,
   69.5685,       631,
   69.5887,       650,
   69.6089,       617,
   69.6291,       604,
   69.6492,       628,
   69.6694,       594,
   69.6896,       608,
   69.7097,       589,
   69.7299,       605,
   69.7501,       623,
   69.7702,       616,
   69.7904,       626,
   69.8106,       613,
   69.8307,       590,
   69.8509,       627,
   69.8711,       635,
   69.8912,       626,
   69.9114,       595,
   69.9316,       598,
   69.9517,       595,
   69.9719,       601,
   69.9921,       596,
   70.0123,       588,
   70.0324,       619,
   70.0526,       599,
   70.0728,       605,
   70.0929,       617,
   70.1131,       603,
   70.1333,       643,
   70.1534,       606,
   70.1736,       575,
   70.1938,       610,
   70.2139,       658,
   70.2341,       603,
   70.2543,       637,
   70.2744,       627,
   70.2946,       643,
   70.3148,       638,
    70.335,       621,
   70.3551,       543,
   70.3753,       633,
   70.3955,       593,
   70.4156,       610,
   70.4358,       603,
    70.456,       652,
   70.4761,       611,
   70.4963,       603,
   70.5165,       620,
   70.5366,       615,
   70.5568,       620,
    70.577,       617,
   70.5971,       628,
   70.6173,       600,
   70.6375,       605,
   70.6576,       601,
   70.6778,       617,
    70.698,       583,
   70.7182,       600,
   70.7383,       653,
   70.7585,       593,
   70.7787,       626,
   70.7988,       619,
    70.819,       632,
   70.8392,       606,
   70.8593,       605,
   70.8795,       593,
   70.8997,       636,
   70.9198,       579,
     70.94,       616,
   70.9602,       621,
   70.9803,       642,
   71.0005,       629,
   71.0207,       614,
   71.0409,       589,
    71.061,       625,
   71.0812,       593,
   71.1014,       665,
   71.1215,       636,
   71.1417,       640,
   71.1619,       539,
    71.182,       637,
   71.2022,       577,
   71.2224,       661,
   71.2425,       652,
   71.2627,       632,
   71.2829,       634,
    71.303,       600,
   71.3232,       607,
   71.3434,       615,
   71.3635,       644,
   71.3837,       677,
   71.4039,       628,
   71.4241,       617,
   71.4442,       625,
   71.4644,       628,
   71.4846,       623,
   71.5047,       650,
   71.5249,       639,
   71.5451,       651,
   71.5652,       651,
   71.5854,       640,
   71.6056,       649,
   71.6257,       637,
   71.6459,       624,
   71.6661,       642,
   71.6862,       651,
   71.7064,       621,
   71.7266,       591,
   71.7467,       606,
   71.7669,       668,
   71.7871,       635,
   71.8073,       641,
   71.8274,       634,
   71.8476,       623,
   71.8678,       654,
   71.8879,       613,
   71.9081,       604,
   71.9283,       652,
   71.9484,       609,
   71.9686,       635,
   71.9888,       660,
   72.0089,       610,
   72.0291,       672,
   72.0493,       643,
   72.0694,       643,
   72.0896,       610,
   72.1098,       660,
     72.13,       656,
   72.1501,       610,
   72.1703,       586,
   72.1905,       621,
   72.2106,       636,
   72.2308,       633,
    72.251,       572,
   72.2711,       612,
   72.2913,       605,
   72.3115,       612,
   72.3316,       627,
   72.3518,       618,
    72.372,       627,
   72.3921,       616,
   72.4123,       641,
   72.4325,       650,
   72.4526,       606,
   72.4728,       635,
    72.493,       628,
   72.5132,       610,
   72.5333,       647,
   72.5535,       660,
   72.5737,       628,
   72.5938,       586,
    72.614,       594,
   72.6342,       591,
   72.6543,       634,
   72.6745,       612,
   72.6947,       627,
   72.7148,       653,
    72.735,       647,
   72.7552,       644,
   72.7753,       611,
   72.7955,       645,
   72.8157,       674,
   72.8358,       618,
    72.856,       628,
   72.8762,       642,
   72.8964,       634,
   72.9165,       615,
   72.9367,       629,
   72.9569,       615,
    72.977,       676,
   72.9972,       661,
   73.0174,       627,
   73.0375,       714,
   73.0577,       641,
   73.0779,       620,
    73.098,       649,
   73.1182,       676,
   73.1384,       678,
   73.1585,       662,
   73.1787,       602,
   73.1989,       688,
   73.2191,       671,
   73.2392,       611,
   73.2594,       673,
   73.2796,       651,
   73.2997,       681,
   73.3199,       674,
   73.3401,       638,
   73.3602,       655,
   73.3804,       624,
   73.4006,       671,
   73.4207,       663,
   73.4409,       695,
   73.4611,       677,
   73.4812,       653,
   73.5014,       698,
   73.5216,       656,
   73.5417,       699,
   73.5619,       671,
   73.5821,       717,
   73.6023,       773,
   73.6224,       697,
   73.6426,       717,
   73.6628,       691,
   73.6829,       747,
   73.7031,       774,
   73.7233,       774,
   73.7434,       807,
   73.7636,       790,
   73.7838,       835,
   73.8039,       854,
   73.8241,       815,
   73.8443,       888,
   73.8644,       869,
   73.8846,       938,
   73.9048,       892,
   73.9249,       994,
   73.9451,       944,
   73.9653,      1007,
   73.9855,      1044,
   74.0056,      1060,
   74.0258,      1041,
    74.046,      1117,
   74.0661,      1192,
   74.0863,      1210,
   74.1065,      1283,
   74.1266,      1444,
   74.1468,      1443,
    74.167,      1738,
   74.1871,      2296,
   74.2073,      2859,
   74.2275,      3815,
   74.2476,      3904,
   74.2678,      3287,
    74.288,      2467,
   74.3082,      2000,
   74.3283,      1764,
   74.3485,      1525,
   74.3687,      1582,
   74.3888,      1551,
    74.409,      1846,
   74.4292,      2176,
   74.4493,      2418,
   74.4695,      2254,
   74.4897,      2002,
   74.5098,      1616,
     74.53,      1328,
   74.5502,      1255,
   74.5703,      1180,
   74.5905,      1083,
   74.6107,      1024,
   74.6308,      1001,
    74.651,       946,
   74.6712,       969,
   74.6914,       910,
   74.7115,       863,
   74.7317,       867,
   74.7519,       808,
    74.772,       797,
   74.7922,       777,
   74.8124,       801,
   74.8325,       775,
   74.8527,       759,
   74.8729,       773,
    74.893,       721,
   74.9132,       730,
   74.9334,       707,
   74.9535,       703,
   74.9737,       706,
   74.9939,       727,
    75.014,       710,
   75.0342,       691,
   75.0544,       734,
   75.0746,       703,
   75.0947,       713,
   75.1149,       611,
   75.1351,       686,
   75.1552,       717,
   75.1754,       626,
   75.1956,       645,
   75.2157,       639,
   75.2359,       682,
   75.2561,       690,
   75.2762,       665,
   75.2964,       689,
   75.3166,       670,
   75.3367,       701,
   75.3569,       645,
   75.3771,       710,
   75.3973,       616,
   75.4174,       625,
   75.4376,       639,
   75.4578,       627,
   75.4779,       653,
   75.4981,       633,
   75.5183,       647,
   75.5384,       612,
   75.5586,       649,
   75.5788,       604,
   75.5989,       638,
   75.6191,       645,
   75.6393,       641,
   75.6594,       655,
   75.6796,       605,
   75.6998,       647,
   75.7199,       626,
   75.7401,       656,
   75.7603,       627,
   75.7805,       617,
   75.8006,       640,
   75.8208,       640,
    75.841,       668,
   75.8611,       575,
   75.8813,       690,
   75.9015,       633,
   75.9216,       602,
   75.9418,       606,
    75.962,       617,
   75.9821,       617,
   76.0023,       647,
   76.0225,       665,
   76.0426,       636,
   76.0628,       667,
    76.083,       595,
   76.1032,       665,
   76.1233,       615,
   76.1435,       627,
   76.1637,       626,
   76.1838,       645,
    76.204,       587,
   76.2242,       647,
   76.2443,       625,
   76.2645,       634,
   76.2847,       614,
   76.3048,       670,
    76.325,       623,
   76.3452,       633,
   76.3653,       641,
   76.3855,       618,
   76.4057,       608,
   76.4258,       584,
    76.446,       650,
   76.4662,       665,
   76.4864,       603,
   76.5065,       630,
   76.5267,       576,
   76.5469,       600,
    76.567,       658,
   76.5872,       605,
   76.6074,       594,
   76.6275,       663,
   76.6477,       630,
   76.6679,       588,
    76.688,       580,
   76.7082,       624,
   76.7284,       635,
   76.7485,       636,
   76.7687,       643,
   76.7889,       614,
    76.809,       618,
   76.8292,       588,
   76.8494,       597,
   76.8696,       640,
   76.8897,       598,
   76.9099,       586,
   76.9301,       624,
   76.9502,       619,
   76.9704,       603,
   76.9906,       638,
   77.0107,       647,
   77.0309,       632,
   77.0511,       626,
   77.0712,       593,
   77.0914,       631,
   77.1116,       596,
   77.1317,       603,
   77.1519,       595,
   77.1721,       627,
   77.1923,       593,
   77.2124,       667,
   77.2326,       640,
   77.2528,       635,
   77.2729,       652,
   77.2931,       647,
   77.3133,       620,
   77.3334,       583,
   77.3536,       658,
   77.3738,       627,
   77.3939,       648,
   77.4141,       605,
   77.4343,       616,
   77.4544,       610,
   77.4746,       626,
   77.4948,       577,
   77.5149,       615,
   77.5351,       619,
   77.5553,       584,
   77.5755,       627,
   77.5956,       641,
   77.6158,       626,
    77.636,       628,
   77.6561,       622,
   77.6763,       612,
   77.6965,       624,
   77.7166,       610,
   77.7368,       628,
    77.757,       636,
   77.7771,       592,
   77.7973,       636,
   77.8175,       610,
   77.8376,       645,
   77.8578,       644,
    77.878,       652,
   77.8981,       612,
   77.9183,       620,
   77.9385,       612,
   77.9587,       583,
   77.9788,       585,
    77.999,       612,
