;RAW4.00
[RawHeader]
Date=11/26/2025
EstimatedTotalTime=426.6
FurtherDQLReading=0
HardwareIndicator=65519
MeasuredTotalTime=4.29378
MeasurementFlag=1
NumberOfMeasuredRanges=1
NumberOfRanges=1
Time=09:02:39

[VarInfo]
Type=USER
Flags=0
Value=Lab Manager

[VarInfo]
Type=SAMPLEID
Flags=0
Value=Commander Sample ID

[VarInfo]
Type=COMMENT
Flags=0
Value=

[VarInfo]
Type=UTF
Flags=0
Value=

[VarInfo]
Type=CREATOR
Flags=0
Value=V5Converter

[VarInfo]
Type=CREATOR_VERSION
Flags=0
Value=4.4.16.0

[HardwareConfiguration]
AbsorptionFactor=9999
ActivateAbsorber=0
Alpha1=1.5406
Alpha2=1.54439
AlphaAverage=1.54184
AlphaRatio=0.5
Analyzer=0
Anode=Cu
AntiScatteringSlit=9999
BeamOpticsFlags=0
Beta=1.39222
BetaRelativeIntensity=0
DeactivateAbsorber=0
DetectorSlit=9999
DivergenceSlit=9999
GoniometerControl=0
GoniometerDiameter=282
GoniometerModel=256
GoniometerStage=7
Monochromator=0
NearSampleSlit=9999
PrimarySollerSlit=9999
SampleChanger=0
SecondSollerSlit=9999
SynchronousAxis=0
ThinFilmAttachment=9999
WaveUnit=A

[RangeHeader]
ActuallyUsedLambda=1.54184
AdditionalDetectorMask=257
DataRecordLength=4
DelayTime=0
DisplayPlaneNumber=0
EstimatedScanTime=427
ExtraParametersMask=0
GeneratorCurrent=10
GeneratorVoltage=30
Increment=0.0201685
Increment3=0
NumberOfCompletedData=1885
NumberOfCounts=1
NumberOfDetectors=0
NumberOfDrives=3
NumberOfEncoderDrives=0
NumberOfMeasuredData=1885
NumberOfVaryingParameters=0
RangeStartTime=0
RotationSpeed=0
ScanMode=1
ScanType=Locked Coupled
SimulatedMeasConditions=0
SlitChangerIn=0
SmootingWidth=0
Start=40.0015
Steps=1885
SynchronousRotation=0
Time=33

[VarInfo]
Type=PSD_DISCRIM
Flags=0
Value=0.11;0.5

[VarInfo]
Type=OPTICS_V5
Flags=0
Value=H4sIAAAAAAAEAO1d63KjOhJ+Fda/zqmtBIPtXKaITzm2J+OaOHbFTnKmtrZcBORYZzC4AOey//d99hl2X2x1QViIS8C3JBN+TCaodWm6+2vUUkfS/nieW9IjcD3o2GcV5bBakYBtOCa0H84qS396oBxV/mhqF44NnTnwgdt25gvHBrbf0X1dQq1t78uzB88qM99ffJHlp6enw6faoeM+yGq1qsh/9i9HxgzM9QNoe75uG6AStjJfb1WRbqEH7y1wpc/BWWXFR0joAM9w4cInL/Bj4UHLsSW+3oXrLBc9NBZ6t3Pgojcb3P8FDH+o+7OzitwBj9AAMt+CrxUfl1Lblu55QRehTORzoM8XqLDt2L4ObeBy/coBc6yHluEvdYtxoR6o1ePT02O5h8TkLue4tzhrTW2EZGjqqBswQr3oFvyXjl+9OdUtD2hyGln7c259hcAyrwHqHhq4EDFpA/KbJ8lNjfKD1ToCFipvdm00JDA1OUbR6Btwou9Ab2HpL824AjQ5tXK8m+bF4OrHhPzodEft64TGrBVWDOsoPhpP1bBWhrxWvISy1r0hIUP+4r8skMLHrm78xG8sGODQhXPdfSHkZBMMakgD9GxISBvSeHkPOIFIQeOidilHx44baRI9r5mSRmyEDSxUYBJZ3blu/xy4JnCvAfYzAL0wsdX3b8s5NVnMwIfj6+8T9KPV/l7IxHm5Jhp5z0OvBh9BE+kGCS98DAk920dCZMIVSikeHA9SJulgmhwp1bAq2ZMXfZT4B2LSAxc+QFu3ogSlwl6OWi7Ssb/0moPwnSLFGmsYPPedJdIj0qJQrgWE0MJ5JCOdEXICmjFtjmnJUA7J0tRxpRHQLUBtYA3AytxYcejGiMm4JZa46kmmLG0LrhEWBa3xcus++8A2MZDfDYZpCWdMkQKtj5nwHfcltGVFk+OFGseMJxH2qHoYWND7cnJosmJN5ku1uCnh1+H65qyTKx3Y545jAR1NEG5s6BPpdiDSG56bXcI59IlYwiKvWdVk7knrgKm+tPxb3VoCboigVyQ96CPXTshnFewlKri/oQta5l9LD8GnYEuZYx67mbHTJoqe6ZblPK0cjVCOarZnwPgJzFUVVqC1ESPOHKsWvx33pNH5Zl7erhEyxkg2xVq1lr7TdoHug6HrLIDrvzAWEyiR9/eIRfdMhLKr5fweuE21rslCEdaQRS08UPF//xMyUSUc9B0TNG8Quqbos4xMnTwz90Y+PzEHluy7tuWt5HgP/ND5vNXOHBXjLvaN2aNbYuh5A79Evm3IJvErCL6JJ23LP418rD3OPSHRTOHDEjnla/gw85sIdabECnU0BoKwUKWYS+vrz5fAfvBnTbXRwKJhj2nOjrJISkNktZevObqMVm/q5DL4SnFwGS02cm5pFninPwKqkpa1mOmKYIUieVuWOJh2nCVqyWzxf//ehzWm2Nxw9uJBQ7dIeQJnTA/KYaNePXrNFtfo7ca2MPfItOjcf/WMZelYS+paugfVBtErK9H60Ibz5bx5oBwenx4fndaUWv3kSK0pjePu32vVE4S4oAZGIvklvWZQ4W0Rs4b0UpC0Rk/7QJiajTD10yOsXjvdJsRYdyXGNhLfFkDGuto1yh6Bqz+IoV6M/ulxppzUt4kz1l2Js43EtwWcsa52jLNz4OupIMPET46w2qmqqttD2Kq7EmEbiW9jhK262jHCrvGaRirECHVXGHuvCFutth02NsJWrKMSVWsKbh08xTrZCZK+OsbSG7gQ2D5ZHRSgJJK3tspG1g4H057tH9XfH6CibEVXr/OjKbkXhfRCBYDfqOeDOWLs0nmABl3VvJn0rm5bl73OpP2tN9TkFYkJfAye/WbPftQtiMQzg4uVjCJaIvW07+CFjI1lEf6uyTEWsnm67F2lsnIJbSARW0kbWtlk6OEgY+yhA20/e3B1k8GZLoaD0auqCHeKD6S58wgk35HmwJjpNrYKCTmTxd/SeKxl8/ienF2WXefzdFk9bOTm6N5Lz546UqiqhAVciZbr3FOQY3BWIVUkVBrdJr+ZtC6H31rRcrGRhEeyyEjkXXKxo0bYURPZUVPYUbPYUQuzEywL8PxEyoQBQloib5PW7UUWe0HrokySmCrg8D78PeybkkWGzrvjVjIvuH4+FiIbUQEDqBXeyxN46LJSkY3uZbffvRqnSMV2TCAFbaXVSDlkQmfBvNq4EkHsASVZZdetcW+QpTTSOp+8YlOLgL9pYnk4ToQicvl10J4MrpMZJONJkeZyfMe6Ed+xvgA2skTfcYU8TFacvPmcsQFLZ8dr7r82tXQiP3O7dSw/voYXlO4q5vl5u6WEjcypLxqFfRNqVSHyCL4FKaFHctihVBMCjFp1f7FErbF+MBEXRsEvZLo55TW19tJ1sT+LmlpQuitTm7f2YWpolHD6sQ1TaySFsh/E0uKy2LulDZ0nkgHOmxQp25WV3aUEnW+xcHMnRJr5lluqhymm+EkWW+4491hde7Ul3ssWbV9+7YtfJA0UTQyNGXBfyVbbPA8ud74bklUw60j9YgWfilQ/I4dzraYmBmuZ2QhiKJW9qxqLdLI3h6IxR/YytzAXT1vD42MIIXVJnC4nR8cylyaJ7OZRhxZeJcCPHu2eWH2ZQFkmUJYJlGUCZZlA+fE2xcsEyvezJV4mUP6aCCsTKN8TxsoEyl8VZ2UC5XvCWZlA+ashrEygfE8IKxMoywTKMoGyTKAsEyjLBMoygbJMoCwTKMsEyjKBskygLBMoywTKMoGyTKAsEyjLBMoygbJMoHzr+KNMoCwTKD9tAiXLkUS/iumT7KzT+Cmg4tm7GScqd+cL/4UkG4arGcVOT+72h4PRhP4scnoyGTg0xcTzk2U+BzLzcGMl7XBjde+HGw8WbefceR5MR45lATfhiGNKyDjkmKsg/WbotmTQQ8ElNJZEifQE7N/XgX9k+LhXSSBnuYaE6hunwkb7FPSZfOxxRGTIPPKL8PePe2KymphYK0bAR+scevtxXAin6Q2diJrmRGpv50S+wmdgEkNlcw/RmVjQz3IliCz1U2CAaRv4kdXICV5EJGb6ELHy5h6E61FQZYr/YA2o98gntQ/sOmq5XMfxeudlE7OmVzSsTJpYMhZe0hcRy1SR/jGf/zPDjH/DR/7fA2QfErQ9hAVgol98R9I5hWWaMq5mhBds4KeJUp0oaQYcIb5mwIVtN52ZmPP5qH/5US30lx930PRnYm4HLtvZktP8/WxBxzgL44DNsuvjPeVdZqh+7nWGuODWWWeI97KTtI5vABumgB1a+LnBszXslNBZz+i3gpzt3wSirjOzGenzhQXuZgBYY/QC/KUgIkkjH65UJ0ChmfamMj+F+lCxGJtFbxiJ1dIisfpGkRjhMR6HvT9h3thLD5hkeHHgLInKwm1g17oJl16CldWVYB+fXrg3mE494KdZfesZevz3Iay2B1ceYybnbh1ywVU1LSlVPTypn6qNRkNN8LvHjcOTRv24dqQqvK8VhNAM7mETbitc+w7DEUCRgJl9i2FYh7v9roNCXwNnMmzhLkORh4SYKLFGsfsMwz42ifVFRj70nYaF9FrM/4zwzYaj4jcbRuW787sNw+F2cbvhyRss3uHlOks3wMyxzMQtgMsX+xm8pBxzcfnj6s/ujy654bCjSsOZ7olX4OYEsRyOEwezQMpa3mDWKOO8X3k4Wj2jProvYAvX6KYzLmrzl7v28CTPUlxNiU9Yi8wL0ecUu0XdWrmWfniNJk2pxn6HJHazGl4xZ9PpjyfkXwFHw4ba6R6gstmscZebgP09bgIKCIswkLYN2N/zNmAmj6JSs3YC+59rJ1Cp53Ii1c+wFVhGSkUjpbRAqXF4dHrSUJRqPWmBqqEcHldP68dqfQeB0sontAHGieA9hcKI4+SmzLSadMAw70kjnLfkkW8dVkPLMIDnOS4E3hoRE+Mi7j2jlLwRUvyl1/ekrIcPHRqtqcpiLudicNWekB9FHA7lZ+eh0Ri4qHQnkdHp3mdFwxkkShPAfO0EGXBRYgTUqKlErdE1Wb0CGJXZGHSdNqGDKCsJ1TJnP6vqMuJUZpxuDuAUxgVFpsREEgUYMFu+rxszPNBZ5WDPRwluc5pzmitr4SQ+y+l5TBQhKMMCjfMcZLfIWj48ALPjYkzSv8ZE3eHvWs9sIu2S3oNHTCEVRwtgwGnwt6KsUpyC4BLvvcgEK46DYs5u+K03mpAfRZxdFKHbnGBVi0yvQisOP5lEYfRDEPwf22IqXU7pckqXI7qcECvsd+8VLsZPznhGTjB6jZVIzZz8ZA+dc9yig6ZEJvFifFQxXo8YAd9H0PIkfi6GHAXNPKxILbzB7vVR6AbplI5NtLGOuVT/5i2e1Rn4EFu+VFtBkewhB6uqmiyUa3yqI/WAkWUTj/6JxSqYYK6D6Pv/u9RXv2COAAA=

[PSD]
ActualTwoTheta=9999
FirstUsedChannel=0
FixedPSD=0
PSDOpening=4.99171
PSDType=5

[Drive]
DriveFlags=1
DriveName=2Theta
DriveNumber=2
DriveOffset=0
OffsetIndex=0
OscillationAmplitude=0
OscillationSpeed=0
StartPosition=40.0015

[Drive]
DriveFlags=1
DriveName=Theta
DriveNumber=1
DriveOffset=0
OffsetIndex=0
OscillationAmplitude=0
OscillationSpeed=0
StartPosition=20.0007

[Drive]
DriveFlags=1
DriveName=Phi
DriveNumber=3
DriveOffset=0
OffsetIndex=0
OscillationAmplitude=0
OscillationSpeed=0
StartPosition=0

[Data]
     Angle,       PSD,
   40.0015,       651,
   40.0217,       629,
   40.0418,       650,
    40.062,       627,
   40.0822,       625,
   40.1023,       635,
   40.1225,       648,
   40.1427,       656,
   40.1628,       677,
    40.183,       635,
   40.2032,       601,
   40.2233,       651,
   40.2435,       652,
   40.2637,       645,
   40.2838,       606,
    40.304,       632,
   40.3242,       660,
   40.3444,       639,
   40.3645,       651,
   40.3847,       668,
   40.4049,       649,
    40.425,       661,
   40.4452,       667,
   40.4654,       689,
   40.4855,       640,
   40.5057,       672,
   40.5259,       649,
    40.546,       621,
   40.5662,       665,
   40.5864,       629,
   40.6065,       609,
   40.6267,       658,
   40.6469,       660,
   40.6671,       658,
   40.6872,       658,
   40.7074,       683,
   40.7276,       606,
   40.7477,       671,
   40.7679,       661,
   40.7881,       642,
   40.8082,       699,
   40.8284,       628,
   40.8486,       621,
   40.8687,       626,
   40.8889,       599,
   40.9091,       678,
   40.9292,       635,
   40.9494,       606,
   40.9696,       619,
   40.9897,       697,
   41.0099,       614,
   41.0301,       629,
   41.0503,       630,
   41.0704,       633,
   41.0906,       629,
   41.1108,       638,
   41.1309,       650,
   41.1511,       651,
   41.1713,       620,
   41.1914,       677,
   41.2116,       627,
   41.2318,       662,
   41.2519,       667,
   41.2721,       642,
   41.2923,       683,
   41.3124,       631,
   41.3326,       627,
   41.3528,       632,
   41.3729,       631,
   41.3931,       630,
   41.4133,       667,
   41.4335,       657,
   41.4536,       650,
   41.4738,       629,
    41.494,       640,
   41.5141,       614,
   41.5343,       691,
   41.5545,       643,
   41.5746,       649,
   41.5948,       630,
    41.615,       638,
   41.6351,       645,
   41.6553,       661,
   41.6755,       631,
   41.6956,       631,
   41.7158,       679,
    41.736,       661,
   41.7562,       624,
   41.7763,       615,
   41.7965,       667,
   41.8167,       740,
   41.8368,       731,
    41.857,       762,
   41.8772,       749,
   41.8973,       769,
   41.9175,       755,
   41.9377,       762,
   41.9578,       821,
    41.978,       814,
   41.9982,       790,
   42.0183,       768,
   42.0385,       814,
   42.0587,       750,
   42.0788,       788,
    42.099,       807,
   42.1192,       761,
   42.1394,       735,
   42.1595,       789,
   42.1797,       810,
   42.1999,       770,
     42.22,       771,
   42.2402,       814,
   42.2604,       817,
   42.2805,       773,
   42.3007,       818,
   42.3209,       806,
    42.341,       750,
   42.3612,       779,
   42.3814,       804,
   42.4015,       801,
   42.4217,       831,
   42.4419,       758,
    42.462,       743,
   42.4822,       778,
   42.5024,       794,
   42.5226,       807,
   42.5427,       784,
   42.5629,       808,
   42.5831,       803,
   42.6032,       857,
   42.6234,       807,
   42.6436,       796,
   42.6637,       849,
   42.6839,       804,
   42.7041,       815,
   42.7242,       831,
   42.7444,       847,
   42.7646,       828,
   42.7847,       845,
   42.8049,       876,
   42.8251,       866,
   42.8453,       890,
   42.8654,       925,
   42.8856,       986,
   42.9058,      1005,
   42.9259,      1020,
   42.9461,      1033,
   42.9663,      1072,
   42.9864,      1129,
   43.0066,      1229,
   43.0268,      1325,
   43.0469,      1290,
   43.0671,      1339,
   43.0873,      1434,
   43.1074,      1600,
   43.1276,      1702,
   43.1478,      1907,
   43.1679,      2089,
   43.1881,      2169,
   43.2083,      2410,
   43.2285,      2560,
   43.2486,      3071,
   43.2688,      3887,
    43.289,      5849,
   43.3091,     10966,
   43.3293,     24050,
   43.3495,     48064,
   43.3696,     61284,
   43.3898,     43546,
     43.41,     20819,
   43.4301,     14201,
   43.4503,     19818,
   43.4705,     29829,
   43.4906,     29812,
   43.5108,     17708,
    43.531,      8109,
   43.5511,      4437,
   43.5713,      3204,
   43.5915,      2597,
   43.6117,      2204,
   43.6318,      2048,
    43.652,      1844,
   43.6722,      1642,
   43.6923,      1556,
   43.7125,      1388,
   43.7327,      1370,
   43.7528,      1199,
    43.773,      1182,
   43.7932,      1114,
   43.8133,      1035,
   43.8335,       960,
   43.8537,       952,
   43.8738,       949,
    43.894,       898,
   43.9142,       916,
   43.9344,       892,
   43.9545,       865,
   43.9747,       858,
   43.9949,       863,
    44.015,       882,
   44.0352,       826,
   44.0554,       852,
   44.0755,       851,
   44.0957,       819,
   44.1159,       831,
    44.136,       801,
   44.1562,       792,
   44.1764,       829,
   44.1965,       850,
   44.2167,       779,
   44.2369,       820,
    44.257,       794,
   44.2772,       740,
   44.2974,       800,
   44.3176,       759,
   44.3377,       817,
   44.3579,       786,
   44.3781,       795,
   44.3982,       828,
   44.4184,       734,
   44.4386,       785,
   44.4587,       802,
   44.4789,       804,
   44.4991,       769,
   44.5192,       776,
   44.5394,       766,
   44.5596,       773,
   44.5797,       746,
   44.5999,       731,
   44.6201,       759,
   44.6402,       753,
   44.6604,       750,
   44.6806,       720,
   44.7008,       735,
   44.7209,       741,
   44.7411,       707,
   44.7613,       758,
   44.7814,       701,
   44.8016,       722,
   44.8218,       757,
   44.8419,       724,
   44.8621,       795,
   44.8823,       706,
   44.9024,       784,
   44.9226,       766,
   44.9428,       746,
   44.9629,       757,
   44.9831,       762,
   45.0033,       707,
   45.0235,       789,
   45.0436,       677,
   45.0638,       721,
    45.084,       744,
   45.1041,       699,
   45.1243,       733,
   45.1445,       739,
   45.1646,       691,
   45.1848,       720,
    45.205,       729,
   45.2251,       753,
   45.2453,       695,
   45.2655,       726,
   45.2856,       728,
   45.3058,       774,
    45.326,       763,
   45.3461,       781,
   45.3663,       805,
   45.3865,       790,
   45.4067,       782,
   45.4268,       694,
    45.447,       755,
   45.4672,       707,
   45.4873,       729,
   45.5075,       725,
   45.5277,       712,
   45.5478,       693,
    45.568,       714,
   45.5882,       713,
   45.6083,       702,
   45.6285,       688,
   45.6487,       702,
   45.6688,       708,
    45.689,       714,
   45.7092,       704,
   45.7294,       722,
   45.7495,       672,
   45.7697,       698,
   45.7899,       750,
     45.81,       725,
   45.8302,       742,
   45.8504,       665,
   45.8705,       764,
   45.8907,       714,
   45.9109,       750,
    45.931,       707,
   45.9512,       669,
   45.9714,       738,
   45.9915,       674,
   46.0117,       670,
   46.0319,       685,
    46.052,       738,
   46.0722,       725,
   46.0924,       691,
   46.1126,       669,
   46.1327,       668,
   46.1529,       701,
   46.1731,       685,
   46.1932,       652,
   46.2134,       714,
   46.2336,       676,
   46.2537,       730,
   46.2739,       704,
   46.2941,       718,
   46.3142,       732,
   46.3344,       736,
   46.3546,       730,
   46.3747,       671,
   46.3949,       676,
   46.4151,       711,
   46.4352,       691,
   46.4554,       695,
   46.4756,       651,
   46.4958,       663,
   46.5159,       675,
   46.5361,       690,
   46.5563,       708,
   46.5764,       729,
   46.5966,       711,
   46.6168,       636,
   46.6369,       690,
   46.6571,       683,
   46.6773,       696,
   46.6974,       707,
   46.7176,       708,
   46.7378,       681,
   46.7579,       733,
   46.7781,       709,
   46.7983,       722,
   46.8185,       713,
   46.8386,       712,
   46.8588,       664,
    46.879,       668,
   46.8991,       667,
   46.9193,       705,
   46.9395,       661,
   46.9596,       688,
   46.9798,       671,
        47,       694,
   47.0201,       689,
   47.0403,       676,
   47.0605,       696,
   47.0806,       679,
   47.1008,       703,
    47.121,       668,
   47.1411,       657,
   47.1613,       678,
   47.1815,       714,
   47.2017,       690,
   47.2218,       684,
    47.242,       680,
   47.2622,       699,
   47.2823,       664,
   47.3025,       678,
   47.3227,       681,
   47.3428,       728,
    47.363,       655,
   47.3832,       685,
   47.4033,       734,
   47.4235,       637,
   47.4437,       676,
   47.4638,       673,
    47.484,       753,
   47.5042,       684,
   47.5243,       694,
   47.5445,       660,
   47.5647,       691,
   47.5849,       677,
    47.605,       720,
   47.6252,       706,
   47.6454,       669,
   47.6655,       676,
   47.6857,       672,
   47.7059,       712,
    47.726,       656,
   47.7462,       716,
   47.7664,       700,
   47.7865,       656,
   47.8067,       702,
   47.8269,       632,
    47.847,       680,
   47.8672,       651,
   47.8874,       624,
   47.9076,       694,
   47.9277,       735,
   47.9479,       692,
   47.9681,       685,
   47.9882,       707,
   48.0084,       679,
   48.0286,       674,
   48.0487,       642,
   48.0689,       697,
   48.0891,       673,
   48.1092,       655,
   48.1294,       705,
   48.1496,       761,
   48.1697,       670,
   48.1899,       683,
   48.2101,       641,
   48.2302,       662,
   48.2504,       667,
   48.2706,       685,
   48.2908,       648,
   48.3109,       684,
   48.3311,       666,
   48.3513,       639,
   48.3714,       686,
   48.3916,       687,
   48.4118,       709,
   48.4319,       653,
   48.4521,       670,
   48.4723,       669,
   48.4924,       644,
   48.5126,       669,
   48.5328,       659,
   48.5529,       677,
   48.5731,       677,
   48.5933,       668,
   48.6134,       682,
   48.6336,       685,
   48.6538,       686,
    48.674,       688,
   48.6941,       674,
   48.7143,       712,
   48.7345,       729,
   48.7546,       703,
   48.7748,       710,
    48.795,       735,
   48.8151,       733,
   48.8353,       694,
   48.8555,       664,
   48.8756,       724,
   48.8958,       727,
    48.916,       705,
   48.9361,       699,
   48.9563,       689,
   48.9765,       740,
   48.9967,       754,
   49.0168,       724,
    49.037,       694,
   49.0572,       729,
   49.0773,       700,
   49.0975,       667,
   49.1177,       698,
   49.1378,       685,
    49.158,       722,
   49.1782,       707,
   49.1983,       728,
   49.2185,       703,
   49.2387,       686,
   49.2588,       673,
    49.279,       736,
   49.2992,       711,
   49.3193,       719,
   49.3395,       716,
   49.3597,       713,
   49.3799,       721,
      49.4,       708,
   49.4202,       755,
   49.4404,       722,
   49.4605,       729,
   49.4807,       688,
   49.5009,       729,
    49.521,       684,
   49.5412,       696,
   49.5614,       690,
   49.5815,       695,
   49.6017,       744,
   49.6219,       734,
    49.642,       741,
   49.6622,       702,
   49.6824,       676,
   49.7025,       769,
   49.7227,       731,
   49.7429,       691,
   49.7631,       658,
   49.7832,       684,
   49.8034,       726,
   49.8236,       737,
   49.8437,       756,
   49.8639,       732,
   49.8841,       777,
   49.9042,       760,
   49.9244,       720,
   49.9446,       743,
   49.9647,       769,
   49.9849,       786,
   50.0051,       784,
   50.0252,       808,
   50.0454,       810,
   50.0656,       826,
   50.0858,       776,
   50.1059,       843,
   50.1261,       932,
   50.1463,       880,
   50.1664,       918,
   50.1866,       931,
   50.2068,       948,
   50.2269,      1059,
   50.2471,      1040,
   50.2673,      1179,
   50.2874,      1181,
   50.3076,      1244,
   50.3278,      1306,
   50.3479,      1408,
   50.3681,      1704,
   50.3883,      2066,
   50.4084,      2566,
   50.4286,      3791,
   50.4488,      6228,
    50.469,     10169,
   50.4891,     13848,
   50.5093,     14017,
   50.5295,     10222,
   50.5496,      6702,
   50.5698,      5177,
     50.59,      5417,
   50.6101,      6862,
   50.6303,      8005,
   50.6505,      6992,
   50.6706,      4896,
   50.6908,      3191,
    50.711,      2200,
   50.7311,      1705,
   50.7513,      1446,
   50.7715,      1329,
   50.7917,      1175,
   50.8118,      1022,
    50.832,      1045,
   50.8522,      1023,
   50.8723,       912,
   50.8925,       965,
   50.9127,       921,
   50.9328,       845,
    50.953,       840,
   50.9732,       832,
   50.9933,       822,
   51.0135,       834,
   51.0337,       764,
   51.0538,       778,
    51.074,       768,
   51.0942,       740,
   51.1143,       707,
   51.1345,       743,
   51.1547,       760,
   51.1749,       727,
    51.195,       689,
   51.2152,       719,
   51.2354,       740,
   51.2555,       666,
   51.2757,       712,
   51.2959,       664,
    51.316,       677,
   51.3362,       727,
   51.3564,       721,
   51.3765,       674,
   51.3967,       703,
   51.4169,       690,
    51.437,       709,
   51.4572,       691,
   51.4774,       670,
   51.4975,       693,
   51.5177,       711,
   51.5379,       714,
   51.5581,       668,
   51.5782,       702,
   51.5984,       675,
   51.6186,       685,
   51.6387,       728,
   51.6589,       722,
   51.6791,       687,
   51.6992,       702,
   51.7194,       673,
   51.7396,       706,
   51.7597,       683,
   51.7799,       738,
   51.8001,       655,
   51.8202,       694,
   51.8404,       703,
   51.8606,       693,
   51.8808,       704,
   51.9009,       722,
   51.9211,       693,
   51.9413,       673,
   51.9614,       672,
   51.9816,       655,
   52.0018,       653,
   52.0219,       643,
   52.0421,       707,
   52.0623,       658,
   52.0824,       657,
   52.1026,       668,
   52.1228,       677,
   52.1429,       656,
   52.1631,       709,
   52.1833,       642,
   52.2034,       708,
   52.2236,       701,
   52.2438,       613,
    52.264,       675,
   52.2841,       691,
   52.3043,       686,
   52.3245,       674,
   52.3446,       688,
   52.3648,       678,
    52.385,       668,
   52.4051,       638,
   52.4253,       701,
   52.4455,       652,
   52.4656,       667,
   52.4858,       688,
    52.506,       682,
   52.5261,       689,
   52.5463,       695,
   52.5665,       681,
   52.5866,       669,
   52.6068,       662,
    52.627,       654,
   52.6472,       649,
   52.6673,       644,
   52.6875,       686,
   52.7077,       662,
   52.7278,       673,
    52.748,       695,
   52.7682,       707,
   52.7883,       662,
   52.8085,       689,
   52.8287,       646,
   52.8488,       661,
    52.869,       614,
   52.8892,       672,
   52.9093,       655,
   52.9295,       664,
   52.9497,       675,
   52.9699,       669,
     52.99,       656,
   53.0102,       653,
   53.0304,       667,
   53.0505,       681,
   53.0707,       676,
   53.0909,       686,
    53.111,       655,
   53.1312,       668,
   53.1514,       678,
   53.1715,       651,
   53.1917,       655,
   53.2119,       639,
    53.232,       649,
   53.2522,       656,
   53.2724,       621,
   53.2925,       651,
   53.3127,       639,
   53.3329,       633,
   53.3531,       648,
   53.3732,       664,
   53.3934,       646,
   53.4136,       672,
   53.4337,       647,
   53.4539,       670,
   53.4741,       658,
   53.4942,       672,
   53.5144,       669,
   53.5346,       647,
   53.5547,       653,
   53.5749,       668,
   53.5951,       634,
   53.6152,       674,
   53.6354,       630,
   53.6556,       668,
   53.6757,       658,
   53.6959,       656,
   53.7161,       647,
   53.7363,       697,
   53.7564,       631,
   53.7766,       639,
   53.7968,       679,
   53.8169,       644,
   53.8371,       644,
   53.8573,       663,
   53.8774,       672,
   53.8976,       679,
   53.9178,       631,
   53.9379,       662,
   53.9581,       672,
   53.9783,       656,
   53.9984,       641,
   54.0186,       622,
   54.0388,       677,
    54.059,       660,
   54.0791,       588,
   54.0993,       598,
   54.1195,       651,
   54.1396,       650,
   54.1598,       650,
     54.18,       702,
   54.2001,       598,
   54.2203,       664,
   54.2405,       667,
   54.2606,       634,
   54.2808,       614,
    54.301,       670,
   54.3211,       694,
   54.3413,       664,
   54.3615,       635,
   54.3816,       645,
   54.4018,       664,
    54.422,       627,
   54.4422,       647,
   54.4623,       628,
   54.4825,       650,
   54.5027,       661,
   54.5228,       667,
    54.543,       610,
   54.5632,       633,
   54.5833,       632,
   54.6035,       641,
   54.6237,       623,
   54.6438,       679,
    54.664,       626,
   54.6842,       657,
   54.7043,       616,
   54.7245,       595,
   54.7447,       636,
   54.7648,       648,
    54.785,       705,
   54.8052,       685,
   54.8254,       644,
   54.8455,       645,
   54.8657,       650,
   54.8859,       639,
    54.906,       619,
   54.9262,       645,
   54.9464,       613,
   54.9665,       627,
   54.9867,       645,
   55.0069,       647,
    55.027,       600,
   55.0472,       638,
   55.0674,       636,
   55.0875,       660,
   55.1077,       622,
   55.1279,       654,
   55.1481,       605,
   55.1682,       663,
   55.1884,       632,
   55.2086,       650,
   55.2287,       653,
   55.2489,       672,
   55.2691,       646,
   55.2892,       623,
   55.3094,       599,
   55.3296,       717,
   55.3497,       674,
   55.3699,       683,
   55.3901,       665,
   55.4102,       646,
   55.4304,       652,
   55.4506,       654,
   55.4707,       646,
   55.4909,       647,
   55.5111,       661,
   55.5313,       688,
   55.5514,       669,
   55.5716,       640,
   55.5918,       627,
   55.6119,       633,
   55.6321,       658,
   55.6523,       660,
   55.6724,       601,
   55.6926,       661,
   55.7128,       628,
   55.7329,       635,
   55.7531,       648,
   55.7733,       709,
   55.7934,       639,
   55.8136,       627,
   55.8338,       632,
    55.854,       584,
   55.8741,       627,
   55.8943,       611,
   55.9145,       614,
   55.9346,       612,
   55.9548,       610,
    55.975,       651,
   55.9951,       639,
   56.0153,       622,
   56.0355,       611,
   56.0556,       606,
   56.0758,       622,
    56.096,       642,
   56.1161,       620,
   56.1363,       631,
   56.1565,       630,
   56.1766,       666,
   56.1968,       646,
    56.217,       656,
   56.2372,       692,
   56.2573,       624,
   56.2775,       625,
   56.2977,       640,
   56.3178,       626,
    56.338,       601,
   56.3582,       659,
   56.3783,       646,
   56.3985,       635,
   56.4187,       672,
   56.4388,       675,
    56.459,       623,
   56.4792,       654,
   56.4993,       607,
   56.5195,       610,
   56.5397,       640,
   56.5598,       623,
     56.58,       659,
   56.6002,       649,
   56.6204,       677,
   56.6405,       619,
   56.6607,       607,
   56.6809,       602,
    56.701,       603,
   56.7212,       658,
   56.7414,       663,
   56.7615,       634,
   56.7817,       639,
   56.8019,       610,
    56.822,       635,
   56.8422,       648,
   56.8624,       621,
   56.8825,       605,
   56.9027,       634,
   56.9229,       653,
   56.9431,       596,
   56.9632,       638,
   56.9834,       659,
   57.0036,       626,
   57.0237,       622,
   57.0439,       688,
   57.0641,       629,
   57.0842,       630,
   57.1044,       636,
   57.1246,       642,
   57.1447,       685,
   57.1649,       641,
   57.1851,       609,
   57.2052,       623,
   57.2254,       623,
   57.2456,       612,
   57.2657,       684,
   57.2859,       625,
   57.3061,       669,
   57.3263,       632,
   57.3464,       658,
   57.3666,       637,
   57.3868,       633,
   57.4069,       648,
   57.4271,       640,
   57.4473,       609,
   57.4674,       650,
   57.4876,       630,
   57.5078,       651,
   57.5279,       644,
   57.5481,       626,
   57.5683,       631,
   57.5884,       604,
   57.6086,       626,
   57.6288,       595,
   57.6489,       650,
   57.6691,       556,
   57.6893,       629,
   57.7095,       622,
   57.7296,       593,
   57.7498,       600,
     57.77,       608,
   57.7901,       602,
   57.8103,       619,
   57.8305,       645,
   57.8506,       566,
   57.8708,       659,
    57.891,       625,
   57.9111,       626,
   57.9313,       637,
   57.9515,       618,
   57.9716,       609,
   57.9918,       575,
    58.012,       684,
   58.0322,       599,
   58.0523,       564,
   58.0725,       646,
   58.0927,       639,
   58.1128,       653,
    58.133,       610,
   58.1532,       626,
   58.1733,       602,
   58.1935,       596,
   58.2137,       633,
   58.2338,       670,
    58.254,       617,
   58.2742,       561,
   58.2943,       590,
   58.3145,       632,
   58.3347,       653,
   58.3548,       637,
    58.375,       597,
   58.3952,       590,
   58.4154,       630,
   58.4355,       637,
   58.4557,       596,
   58.4759,       642,
    58.496,       660,
   58.5162,       674,
   58.5364,       648,
   58.5565,       622,
   58.5767,       604,
   58.5969,       640,
    58.617,       642,
   58.6372,       600,
   58.6574,       654,
   58.6775,       625,
   58.6977,       640,
   58.7179,       655,
    58.738,       613,
   58.7582,       631,
   58.7784,       635,
   58.7986,       629,
   58.8187,       616,
   58.8389,       643,
   58.8591,       659,
   58.8792,       605,
   58.8994,       639,
   58.9196,       617,
   58.9397,       611,
   58.9599,       617,
   58.9801,       622,
   59.0002,       625,
   59.0204,       618,
   59.0406,       626,
   59.0607,       640,
   59.0809,       660,
   59.1011,       632,
   59.1213,       642,
   59.1414,       610,
   59.1616,       600,
   59.1818,       612,
   59.2019,       623,
   59.2221,       632,
   59.2423,       616,
   59.2624,       605,
   59.2826,       606,
   59.3028,       658,
   59.3229,       636,
   59.3431,       572,
   59.3633,       621,
   59.3834,       655,
   59.4036,       632,
   59.4238,       632,
   59.4439,       645,
   59.4641,       635,
   59.4843,       612,
   59.5045,       644,
   59.5246,       606,
   59.5448,       613,
    59.565,       645,
   59.5851,       647,
   59.6053,       624,
   59.6255,       594,
   59.6456,       611,
   59.6658,       613,
    59.686,       628,
   59.7061,       639,
   59.7263,       599,
   59.7465,       676,
   59.7666,       621,
   59.7868,       559,
    59.807,       591,
   59.8271,       663,
   59.8473,       678,
   59.8675,       670,
   59.8877,       586,
   59.9078,       608,
    59.928,       624,
   59.9482,       609,
   59.9683,       649,
   59.9885,       585,
   60.0087,       602,
   60.0288,       646,
    60.049,       641,
   60.0692,       644,
   60.0893,       677,
   60.1095,       600,
   60.1297,       617,
   60.1498,       600,
     60.17,       597,
   60.1902,       610,
   60.2104,       633,
   60.2305,       641,
   60.2507,       614,
   60.2709,       598,
    60.291,       652,
   60.3112,       635,
   60.3314,       663,
   60.3515,       625,
   60.3717,       649,
   60.3919,       609,
    60.412,       601,
   60.4322,       629,
   60.4524,       655,
   60.4725,       602,
   60.4927,       587,
   60.5129,       644,
    60.533,       634,
   60.5532,       606,
   60.5734,       625,
   60.5936,       620,
   60.6137,       595,
   60.6339,       619,
   60.6541,       612,
   60.6742,       602,
   60.6944,       660,
   60.7146,       633,
   60.7347,       609,
   60.7549,       610,
   60.7751,       632,
   60.7952,       647,
   60.8154,       616,
   60.8356,       658,
   60.8557,       595,
   60.8759,       638,
   60.8961,       577,
   60.9163,       618,
   60.9364,       603,
   60.9566,       607,
   60.9768,       662,
   60.9969,       598,
   61.0171,       615,
   61.0373,       643,
   61.0574,       591,
   61.0776,       609,
   61.0978,       636,
   61.1179,       618,
   61.1381,       627,
   61.1583,       644,
   61.1784,       595,
   61.1986,       613,
   61.2188,       695,
   61.2389,       618,
   61.2591,       615,
   61.2793,       592,
   61.2995,       649,
   61.3196,       596,
   61.3398,       610,
     61.36,       589,
   61.3801,       619,
   61.4003,       605,
   61.4205,       618,
   61.4406,       634,
   61.4608,       639,
    61.481,       620,
   61.5011,       594,
   61.5213,       633,
   61.5415,       595,
   61.5616,       604,
   61.5818,       620,
    61.602,       613,
   61.6221,       630,
   61.6423,       630,
   61.6625,       618,
   61.6827,       632,
   61.7028,       613,
    61.723,       628,
   61.7432,       595,
   61.7633,       611,
   61.7835,       595,
   61.8037,       614,
   61.8238,       672,
    61.844,       603,
   61.8642,       596,
   61.8843,       647,
   61.9045,       580,
   61.9247,       591,
   61.9448,       576,
    61.965,       652,
   61.9852,       595,
   62.0054,       622,
   62.0255,       652,
   62.0457,       620,
   62.0659,       583,
    62.086,       592,
   62.1062,       602,
   62.1264,       622,
   62.1465,       599,
   62.1667,       630,
   62.1869,       654,
    62.207,       629,
   62.2272,       667,
   62.2474,       634,
   62.2675,       621,
   62.2877,       642,
   62.3079,       609,
    62.328,       611,
   62.3482,       627,
   62.3684,       625,
   62.3886,       622,
   62.4087,       622,
   62.4289,       566,
   62.4491,       641,
   62.4692,       566,
   62.4894,       561,
   62.5096,       615,
   62.5297,       615,
   62.5499,       655,
   62.5701,       633,
   62.5902,       624,
   62.6104,       624,
   62.6306,       631,
   62.6507,       597,
   62.6709,       602,
   62.6911,       647,
   62.7112,       613,
   62.7314,       599,
   62.7516,       630,
   62.7718,       580,
   62.7919,       609,
   62.8121,       632,
   62.8323,       667,
   62.8524,       539,
   62.8726,       645,
   62.8928,       604,
   62.9129,       586,
   62.9331,       627,
   62.9533,       630,
   62.9734,       636,
   62.9936,       576,
   63.0138,       628,
   63.0339,       629,
   63.0541,       595,
   63.0743,       620,
   63.0945,       603,
   63.1146,       585,
   63.1348,       635,
    63.155,       613,
   63.1751,       630,
   63.1953,       627,
   63.2155,       612,
   63.2356,       566,
   63.2558,       615,
    63.276,       624,
   63.2961,       649,
   63.3163,       638,
   63.3365,       606,
   63.3566,       609,
   63.3768,       635,
    63.397,       602,
   63.4171,       607,
   63.4373,       620,
   63.4575,       567,
   63.4777,       571,
   63.4978,       564,
    63.518,       590,
   63.5382,       620,
   63.5583,       619,
   63.5785,       656,
   63.5987,       654,
   63.6188,       651,
    63.639,       617,
   63.6592,       637,
   63.6793,       603,
   63.6995,       594,
   63.7197,       633,
   63.7398,       590,
     63.76,       572,
   63.7802,       642,
   63.8003,       614,
   63.8205,       605,
   63.8407,       600,
   63.8609,       612,
    63.881,       638,
   63.9012,       629,
   63.9214,       610,
   63.9415,       625,
   63.9617,       607,
   63.9819,       624,
    64.002,       665,
   64.0222,       611,
   64.0424,       632,
   64.0625,       587,
   64.0827,       613,
   64.1029,       635,
    64.123,       619,
   64.1432,       608,
   64.1634,       633,
   64.1836,       653,
   64.2037,       633,
   64.2239,       629,
   64.2441,       631,
   64.2642,       652,
   64.2844,       599,
   64.3046,       643,
   64.3247,       666,
   64.3449,       614,
   64.3651,       627,
   64.3852,       606,
   64.4054,       595,
   64.4256,       602,
   64.4457,       626,
   64.4659,       619,
   64.4861,       647,
   64.5062,       619,
   64.5264,       634,
   64.5466,       612,
   64.5668,       645,
   64.5869,       560,
   64.6071,       637,
   64.6273,       595,
   64.6474,       566,
   64.6676,       576,
   64.6878,       630,
   64.7079,       628,
   64.7281,       612,
   64.7483,       604,
   64.7684,       599,
   64.7886,       617,
   64.8088,       585,
   64.8289,       589,
   64.8491,       618,
   64.8693,       616,
   64.8894,       612,
   64.9096,       629,
   64.9298,       580,
     64.95,       642,
   64.9701,       590,
   64.9903,       657,
   65.0105,       608,
   65.0306,       566,
   65.0508,       619,
    65.071,       585,
   65.0911,       592,
   65.1113,       594,
   65.1315,       624,
   65.1516,       628,
   65.1718,       601,
    65.192,       648,
   65.2121,       613,
   65.2323,       627,
   65.2525,       648,
   65.2727,       621,
   65.2928,       634,
    65.313,       628,
   65.3332,       621,
   65.3533,       600,
   65.3735,       572,
   65.3937,       616,
   65.4138,       634,
    65.434,       627,
   65.4542,       607,
   65.4743,       619,
   65.4945,       622,
   65.5147,       592,
   65.5348,       626,
    65.555,       611,
   65.5752,       577,
   65.5953,       593,
   65.6155,       619,
   65.6357,       643,
   65.6559,       613,
    65.676,       643,
   65.6962,       626,
   65.7164,       653,
   65.7365,       620,
   65.7567,       608,
   65.7769,       632,
    65.797,       631,
   65.8172,       655,
   65.8374,       627,
   65.8575,       597,
   65.8777,       638,
   65.8979,       606,
    65.918,       600,
   65.9382,       596,
   65.9584,       619,
   65.9786,       640,
   65.9987,       646,
   66.0189,       617,
   66.0391,       630,
   66.0592,       611,
   66.0794,       623,
   66.0996,       558,
   66.1197,       654,
   66.1399,       640,
   66.1601,       570,
   66.1802,       603,
   66.2004,       635,
   66.2206,       595,
   66.2407,       642,
   66.2609,       645,
   66.2811,       584,
   66.3012,       656,
   66.3214,       627,
   66.3416,       611,
   66.3618,       598,
   66.3819,       610,
   66.4021,       572,
   66.4223,       577,
   66.4424,       639,
   66.4626,       568,
   66.4828,       621,
   66.5029,       599,
   66.5231,       643,
   66.5433,       618,
   66.5634,       617,
   66.5836,       641,
   66.6038,       624,
   66.6239,       607,
   66.6441,       647,
   66.6643,       629,
   66.6844,       628,
   66.7046,       598,
   66.7248,       599,
    66.745,       668,
   66.7651,       654,
   66.7853,       606,
   66.8055,       604,
   66.8256,       609,
   66.8458,       555,
    66.866,       655,
   66.8861,       601,
   66.9063,       581,
   66.9265,       610,
   66.9466,       619,
   66.9668,       624,
    66.987,       582,
   67.0071,       603,
   67.0273,       638,
   67.0475,       633,
   67.0677,       595,
   67.0878,       593,
    67.108,       593,
   67.1282,       572,
   67.1483,       621,
   67.1685,       609,
   67.1887,       616,
   67.2088,       591,
    67.229,       603,
   67.2492,       605,
   67.2693,       605,
   67.2895,       563,
   67.3097,       689,
   67.3298,       568,
     67.35,       635,
   67.3702,       591,
   67.3903,       594,
   67.4105,       622,
   67.4307,       599,
   67.4509,       602,
    67.471,       621,
   67.4912,       645,
   67.5114,       622,
   67.5315,       641,
   67.5517,       634,
   67.5719,       599,
    67.592,       636,
   67.6122,       637,
   67.6324,       612,
   67.6525,       632,
   67.6727,       635,
   67.6929,       650,
    67.713,       645,
   67.7332,       628,
   67.7534,       629,
   67.7735,       569,
   67.7937,       632,
   67.8139,       604,
   67.8341,       607,
   67.8542,       620,
   67.8744,       629,
   67.8946,       596,
   67.9147,       624,
   67.9349,       626,
   67.9551,       601,
   67.9752,       653,
   67.9954,       576,
   68.0156,       577,
   68.0357,       617,
   68.0559,       605,
   68.0761,       611,
   68.0962,       623,
   68.1164,       630,
   68.1366,       589,
   68.1568,       568,
   68.1769,       590,
   68.1971,       585,
   68.2173,       610,
   68.2374,       572,
   68.2576,       626,
   68.2778,       619,
   68.2979,       584,
   68.3181,       594,
   68.3383,       584,
   68.3584,       621,
   68.3786,       604,
   68.3988,       600,
   68.4189,       600,
   68.4391,       603,
   68.4593,       607,
   68.4794,       601,
   68.4996,       617,
   68.5198,       605,
     68.54,       636,
   68.5601,       595,
   68.5803,       630,
   68.6005,       582,
   68.6206,       596,
   68.6408,       668,
    68.661,       595,
   68.6811,       583,
   68.7013,       581,
   68.7215,       591,
   68.7416,       600,
   68.7618,       593,
    68.782,       599,
   68.8021,       602,
   68.8223,       568,
   68.8425,       617,
   68.8626,       601,
   68.8828,       617,
    68.903,       640,
   68.9232,       648,
   68.9433,       618,
   68.9635,       592,
   68.9837,       602,
   69.0038,       598,
    69.024,       625,
   69.0442,       602,
   69.0643,       639,
   69.0845,       598,
   69.1047,       627,
   69.1248,       592,
    69.145,       606,
   69.1652,       644,
   69.1853,       584,
   69.2055,       597,
   69.2257,       634,
   69.2459,       628,
    69.266,       586,
   69.2862,       597,
   69.3064,       649,
   69.3265,       608,
   69.3467,       624,
   69.3669,       623,
    69.387,       589,
   69.4072,       608,
   69.4274,       583,
   69.4475,       631,
   69.4677,       635,
   69.4879,       583,
    69.508,       634,
   69.5282,       618,
   69.5484,       593,
   69.5685,       595,
   69.5887,       603,
   69.6089,       618,
   69.6291,       614,
   69.6492,       628,
   69.6694,       622,
   69.6896,       625,
   69.7097,       587,
   69.7299,       583,
   69.7501,       615,
   69.7702,       584,
   69.7904,       601,
   69.8106,       599,
   69.8307,       601,
   69.8509,       629,
   69.8711,       615,
   69.8912,       622,
   69.9114,       596,
   69.9316,       634,
   69.9517,       580,
   69.9719,       615,
   69.9921,       602,
   70.0123,       633,
   70.0324,       575,
   70.0526,       589,
   70.0728,       601,
   70.0929,       625,
   70.1131,       596,
   70.1333,       641,
   70.1534,       641,
   70.1736,       644,
   70.1938,       628,
   70.2139,       630,
   70.2341,       631,
   70.2543,       599,
   70.2744,       643,
   70.2946,       586,
   70.3148,       627,
    70.335,       603,
   70.3551,       603,
   70.3753,       645,
   70.3955,       593,
   70.4156,       613,
   70.4358,       628,
    70.456,       591,
   70.4761,       609,
   70.4963,       556,
   70.5165,       619,
   70.5366,       617,
   70.5568,       633,
    70.577,       629,
   70.5971,       578,
   70.6173,       622,
   70.6375,       631,
   70.6576,       584,
   70.6778,       596,
    70.698,       635,
   70.7182,       590,
   70.7383,       567,
   70.7585,       607,
   70.7787,       610,
   70.7988,       609,
    70.819,       598,
   70.8392,       585,
   70.8593,       606,
   70.8795,       641,
   70.8997,       577,
   70.9198,       588,
     70.94,       618,
   70.9602,       655,
   70.9803,       597,
   71.0005,       622,
   71.0207,       589,
   71.0409,       641,
    71.061,       616,
   71.0812,       608,
   71.1014,       606,
   71.1215,       622,
   71.1417,       576,
   71.1619,       633,
    71.182,       632,
   71.2022,       646,
   71.2224,       656,
   71.2425,       598,
   71.2627,       581,
   71.2829,       619,
    71.303,       629,
   71.3232,       615,
   71.3434,       583,
   71.3635,       649,
   71.3837,       628,
   71.4039,       594,
   71.4241,       612,
   71.4442,       600,
   71.4644,       688,
   71.4846,       646,
   71.5047,       607,
   71.5249,       616,
   71.5451,       611,
   71.5652,       654,
   71.5854,       632,
   71.6056,       594,
   71.6257,       632,
   71.6459,       627,
   71.6661,       665,
   71.6862,       605,
   71.7064,       665,
   71.7266,       666,
   71.7467,       628,
   71.7669,       677,
   71.7871,       630,
   71.8073,       600,
   71.8274,       669,
   71.8476,       664,
   71.8678,       591,
   71.8879,       615,
   71.9081,       612,
   71.9283,       647,
   71.9484,       620,
   71.9686,       584,
   71.9888,       628,
   72.0089,       617,
   72.0291,       646,
   72.0493,       637,
   72.0694,       621,
   72.0896,       587,
   72.1098,       676,
     72.13,       669,
   72.1501,       653,
   72.1703,       639,
   72.1905,       660,
   72.2106,       656,
   72.2308,       645,
    72.251,       677,
   72.2711,       624,
   72.2913,       609,
   72.3115,       607,
   72.3316,       615,
   72.3518,       578,
    72.372,       618,
   72.3921,       679,
   72.4123,       637,
   72.4325,       659,
   72.4526,       652,
   72.4728,       654,
    72.493,       632,
   72.5132,       609,
   72.5333,       642,
   72.5535,       651,
   72.5737,       618,
   72.5938,       634,
    72.614,       593,
   72.6342,       647,
   72.6543,       649,
   72.6745,       639,
   72.6947,       624,
   72.7148,       606,
    72.735,       651,
   72.7552,       645,
   72.7753,       610,
   72.7955,       638,
   72.8157,       660,
   72.8358,       682,
    72.856,       663,
   72.8762,       639,
   72.8964,       655,
   72.9165,       632,
   72.9367,       642,
   72.9569,       668,
    72.977,       629,
   72.9972,       669,
   73.0174,       638,
   73.0375,       648,
   73.0577,       606,
   73.0779,       629,
    73.098,       662,
   73.1182,       615,
   73.1384,       630,
   73.1585,       643,
   73.1787,       659,
   73.1989,       659,
   73.2191,       622,
   73.2392,       651,
   73.2594,       681,
   73.2796,       649,
   73.2997,       634,
   73.3199,       632,
   73.3401,       690,
   73.3602,       644,
   73.3804,       659,
   73.4006,       677,
   73.4207,       672,
   73.4409,       660,
   73.4611,       645,
   73.4812,       630,
   73.5014,       648,
   73.5216,       665,
   73.5417,       674,
   73.5619,       687,
   73.5821,       684,
   73.6023,       699,
   73.6224,       707,
   73.6426,       685,
   73.6628,       718,
   73.6829,       757,
   73.7031,       728,
   73.7233,       782,
   73.7434,       760,
   73.7636,       837,
   73.7838,       869,
   73.8039,       860,
   73.8241,       897,
   73.8443,       863,
   73.8644,       904,
   73.8846,       916,
   73.9048,       895,
   73.9249,       988,
   73.9451,       961,
   73.9653,       995,
   73.9855,      1036,
   74.0056,      1175,
   74.0258,      1360,
    74.046,      1559,
   74.0661,      1919,
   74.0863,      2543,
   74.1065,      4005,
   74.1266,      6462,
   74.1468,     10217,
    74.167,     12522,
   74.1871,     11277,
   74.2073,      7623,
   74.2275,      4656,
   74.2476,      3099,
   74.2678,      2430,
    74.288,      2192,
   74.3082,      2321,
   74.3283,      3075,
   74.3485,      4459,
   74.3687,      6071,
   74.3888,      6597,
    74.409,      5615,
   74.4292,      3853,
   74.4493,      2535,
   74.4695,      1803,
   74.4897,      1346,
   74.5098,      1183,
     74.53,      1090,
   74.5502,       980,
   74.5703,       949,
   74.5905,       903,
   74.6107,       825,
   74.6308,       814,
    74.651,       816,
   74.6712,       765,
   74.6914,       779,
   74.7115,       731,
   74.7317,       699,
   74.7519,       739,
    74.772,       743,
   74.7922,       691,
   74.8124,       701,
   74.8325,       695,
   74.8527,       719,
   74.8729,       690,
    74.893,       661,
   74.9132,       704,
   74.9334,       703,
   74.9535,       670,
   74.9737,       669,
   74.9939,       671,
    75.014,       661,
   75.0342,       629,
   75.0544,       642,
   75.0746,       612,
   75.0947,       712,
   75.1149,       652,
   75.1351,       632,
   75.1552,       699,
   75.1754,       613,
   75.1956,       621,
   75.2157,       579,
   75.2359,       641,
   75.2561,       635,
   75.2762,       631,
   75.2964,       669,
   75.3166,       634,
   75.3367,       624,
   75.3569,       652,
   75.3771,       663,
   75.3973,       691,
   75.4174,       624,
   75.4376,       619,
   75.4578,       636,
   75.4779,       647,
   75.4981,       646,
   75.5183,       619,
   75.5384,       623,
   75.5586,       634,
   75.5788,       632,
   75.5989,       608,
   75.6191,       670,
   75.6393,       637,
   75.6594,       631,
   75.6796,       651,
   75.6998,       590,
   75.7199,       664,
   75.7401,       636,
   75.7603,       632,
   75.7805,       662,
   75.8006,       666,
   75.8208,       604,
    75.841,       592,
   75.8611,       629,
   75.8813,       653,
   75.9015,       587,
   75.9216,       640,
   75.9418,       636,
    75.962,       613,
   75.9821,       661,
   76.0023,       642,
   76.0225,       598,
   76.0426,       574,
   76.0628,       613,
    76.083,       629,
   76.1032,       622,
   76.1233,       618,
   76.1435,       599,
   76.1637,       634,
   76.1838,       674,
    76.204,       654,
   76.2242,       627,
   76.2443,       652,
   76.2645,       632,
   76.2847,       618,
   76.3048,       636,
    76.325,       635,
   76.3452,       630,
   76.3653,       645,
   76.3855,       603,
   76.4057,       604,
   76.4258,       684,
    76.446,       618,
   76.4662,       641,
   76.4864,       612,
   76.5065,       576,
   76.5267,       619,
   76.5469,       619,
    76.567,       624,
   76.5872,       577,
   76.6074,       641,
   76.6275,       605,
   76.6477,       620,
   76.6679,       599,
    76.688,       647,
   76.7082,       609,
   76.7284,       647,
   76.7485,       665,
   76.7687,       582,
   76.7889,       588,
    76.809,       662,
   76.8292,       653,
   76.8494,       600,
   76.8696,       617,
   76.8897,       617,
   76.9099,       644,
   76.9301,       621,
   76.9502,       605,
   76.9704,       578,
   76.9906,       597,
   77.0107,       631,
   77.0309,       604,
   77.0511,       590,
   77.0712,       640,
   77.0914,       633,
   77.1116,       635,
   77.1317,       629,
   77.1519,       632,
   77.1721,       632,
   77.1923,       637,
   77.2124,       652,
   77.2326,       633,
   77.2528,       624,
   77.2729,       619,
   77.2931,       619,
   77.3133,       639,
   77.3334,       650,
   77.3536,       572,
   77.3738,       643,
   77.3939,       591,
   77.4141,       610,
   77.4343,       591,
   77.4544,       635,
   77.4746,       587,
   77.4948,       691,
   77.5149,       605,
   77.5351,       639,
   77.5553,       637,
   77.5755,       593,
   77.5956,       643,
   77.6158,       641,
    77.636,       638,
   77.6561,       649,
   77.6763,       633,
   77.6965,       586,
   77.7166,       588,
   77.7368,       611,
    77.757,       632,
   77.7771,       585,
   77.7973,       626,
   77.8175,       592,
   77.8376,       593,
   77.8578,       598,
    77.878,       613,
   77.8981,       605,
   77.9183,       613,
   77.9385,       640,
   77.9587,       596,
   77.9788,       615,
    77.999,       630,
