;RAW4.00
[RawHeader]
Date=11/26/2025
EstimatedTotalTime=426.6
FurtherDQLReading=0
HardwareIndicator=65519
MeasuredTotalTime=4.29456
MeasurementFlag=1
NumberOfMeasuredRanges=1
NumberOfRanges=1
Time=05:59:09

[VarInfo]
Type=USER
Flags=0
Value=Lab Manager

[VarInfo]
Type=SAMPLEID
Flags=0
Value=Commander Sample ID

[VarInfo]
Type=COMMENT
Flags=0
Value=

[VarInfo]
Type=UTF
Flags=0
Value=

[VarInfo]
Type=CREATOR
Flags=0
Value=V5Converter

[VarInfo]
Type=CREATOR_VERSION
Flags=0
Value=4.4.16.0

[HardwareConfiguration]
AbsorptionFactor=9999
ActivateAbsorber=0
Alpha1=1.5406
Alpha2=1.54439
AlphaAverage=1.54184
AlphaRatio=0.5
Analyzer=0
Anode=Cu
AntiScatteringSlit=9999
BeamOpticsFlags=0
Beta=1.39222
BetaRelativeIntensity=0
DeactivateAbsorber=0
DetectorSlit=9999
DivergenceSlit=9999
GoniometerControl=0
GoniometerDiameter=282
GoniometerModel=256
GoniometerStage=7
Monochromator=0
NearSampleSlit=9999
PrimarySollerSlit=9999
SampleChanger=0
SecondSollerSlit=9999
SynchronousAxis=0
ThinFilmAttachment=9999
WaveUnit=A

[RangeHeader]
ActuallyUsedLambda=1.54184
AdditionalDetectorMask=257
DataRecordLength=4
DelayTime=0
DisplayPlaneNumber=0
EstimatedScanTime=427
ExtraParametersMask=0
GeneratorCurrent=10
GeneratorVoltage=30
Increment=0.0201685
Increment3=0
NumberOfCompletedData=1885
NumberOfCounts=1
NumberOfDetectors=0
NumberOfDrives=3
NumberOfEncoderDrives=0
NumberOfMeasuredData=1885
NumberOfVaryingParameters=0
RangeStartTime=0
RotationSpeed=0
ScanMode=1
ScanType=Locked Coupled
SimulatedMeasConditions=0
SlitChangerIn=0
SmootingWidth=0
Start=40.0015
Steps=1885
SynchronousRotation=0
Time=33

[VarInfo]
Type=PSD_DISCRIM
Flags=0
Value=0.11;0.5

[VarInfo]
Type=OPTICS_V5
Flags=0
Value=H4sIAAAAAAAEAO1d63KjOhJ+Fda/zqmtBIPtXKaITzm2J+OaOHbFTnKmtrZcBORYZzC4AOey//d99hl2X2x1QViIS8C3JBN+TCaodWm6+2vUUkfS/nieW9IjcD3o2GcV5bBakYBtOCa0H84qS396oBxV/mhqF44NnTnwgdt25gvHBrbf0X1dQq1t78uzB88qM99ffJHlp6enw6faoeM+yGq1qsh/9i9HxgzM9QNoe75uG6AStjJfb1WRbqEH7y1wpc/BWWXFR0joAM9w4cInL/Bj4UHLsSW+3oXrLBc9NBZ6t3Pgojcb3P8FDH+o+7OzitwBj9AAMt+CrxUfl1Lblu55QRehTORzoM8XqLDt2L4ObeBy/coBc6yHluEvdYtxoR6o1ePT02O5h8TkLue4tzhrTW2EZGjqqBswQr3oFvyXjl+9OdUtD2hyGln7c259hcAyrwHqHhq4EDFpA/KbJ8lNjfKD1ToCFipvdm00JDA1OUbR6Btwou9Ab2HpL824AjQ5tXK8m+bF4OrHhPzodEft64TGrBVWDOsoPhpP1bBWhrxWvISy1r0hIUP+4r8skMLHrm78xG8sGODQhXPdfSHkZBMMakgD9GxISBvSeHkPOIFIQeOidilHx44baRI9r5mSRmyEDSxUYBJZ3blu/xy4JnCvAfYzAL0wsdX3b8s5NVnMwIfj6+8T9KPV/l7IxHm5Jhp5z0OvBh9BE+kGCS98DAk920dCZMIVSikeHA9SJulgmhwp1bAq2ZMXfZT4B2LSAxc+QFu3ogSlwl6OWi7Ssb/0moPwnSLFGmsYPPedJdIj0qJQrgWE0MJ5JCOdEXICmjFtjmnJUA7J0tRxpRHQLUBtYA3AytxYcejGiMm4JZa46kmmLG0LrhEWBa3xcus++8A2MZDfDYZpCWdMkQKtj5nwHfcltGVFk+OFGseMJxH2qHoYWND7cnJosmJN5ku1uCnh1+H65qyTKx3Y545jAR1NEG5s6BPpdiDSG56bXcI59IlYwiKvWdVk7knrgKm+tPxb3VoCboigVyQ96CPXTshnFewlKri/oQta5l9LD8GnYEuZYx67mbHTJoqe6ZblPK0cjVCOarZnwPgJzFUVVqC1ESPOHKsWvx33pNH5Zl7erhEyxkg2xVq1lr7TdoHug6HrLIDrvzAWEyiR9/eIRfdMhLKr5fweuE21rslCEdaQRS08UPF//xMyUSUc9B0TNG8Quqbos4xMnTwz90Y+PzEHluy7tuWt5HgP/ND5vNXOHBXjLvaN2aNbYuh5A79Evm3IJvErCL6JJ23LP418rD3OPSHRTOHDEjnla/gw85sIdabECnU0BoKwUKWYS+vrz5fAfvBnTbXRwKJhj2nOjrJISkNktZevObqMVm/q5DL4SnFwGS02cm5pFninPwKqkpa1mOmKYIUieVuWOJh2nCVqyWzxf//ehzWm2Nxw9uJBQ7dIeQJnTA/KYaNePXrNFtfo7ca2MPfItOjcf/WMZelYS+paugfVBtErK9H60Ibz5bx5oBwenx4fndaUWv3kSK0pjePu32vVE4S4oAZGIvklvWZQ4W0Rs4b0UpC0Rk/7QJiajTD10yOsXjvdJsRYdyXGNhLfFkDGuto1yh6Bqz+IoV6M/ulxppzUt4kz1l2Js43EtwWcsa52jLNz4OupIMPET46w2qmqqttD2Kq7EmEbiW9jhK262jHCrvGaRirECHVXGHuvCFutth02NsJWrKMSVWsKbh08xTrZCZK+OsbSG7gQ2D5ZHRSgJJK3tspG1g4H057tH9XfH6CibEVXr/OjKbkXhfRCBYDfqOeDOWLs0nmABl3VvJn0rm5bl73OpP2tN9TkFYkJfAye/WbPftQtiMQzg4uVjCJaIvW07+CFjI1lEf6uyTEWsnm67F2lsnIJbSARW0kbWtlk6OEgY+yhA20/e3B1k8GZLoaD0auqCHeKD6S58wgk35HmwJjpNrYKCTmTxd/SeKxl8/ienF2WXefzdFk9bOTm6N5Lz546UqiqhAVciZbr3FOQY3BWIVUkVBrdJr+ZtC6H31rRcrGRhEeyyEjkXXKxo0bYURPZUVPYUbPYUQuzEywL8PxEyoQBQloib5PW7UUWe0HrokySmCrg8D78PeybkkWGzrvjVjIvuH4+FiIbUQEDqBXeyxN46LJSkY3uZbffvRqnSMV2TCAFbaXVSDlkQmfBvNq4EkHsASVZZdetcW+QpTTSOp+8YlOLgL9pYnk4ToQicvl10J4MrpMZJONJkeZyfMe6Ed+xvgA2skTfcYU8TFacvPmcsQFLZ8dr7r82tXQiP3O7dSw/voYXlO4q5vl5u6WEjcypLxqFfRNqVSHyCL4FKaFHctihVBMCjFp1f7FErbF+MBEXRsEvZLo55TW19tJ1sT+LmlpQuitTm7f2YWpolHD6sQ1TaySFsh/E0uKy2LulDZ0nkgHOmxQp25WV3aUEnW+xcHMnRJr5lluqhymm+EkWW+4491hde7Ul3ssWbV9+7YtfJA0UTQyNGXBfyVbbPA8ud74bklUw60j9YgWfilQ/I4dzraYmBmuZ2QhiKJW9qxqLdLI3h6IxR/YytzAXT1vD42MIIXVJnC4nR8cylyaJ7OZRhxZeJcCPHu2eWH2ZQFkmUJYJlGUCZZlA+fE2xcsEyvezJV4mUP6aCCsTKN8TxsoEyl8VZ2UC5XvCWZlA+ashrEygfE8IKxMoywTKMoGyTKAsEyjLBMoygbJMoCwTKMsEyjKBskygLBMoywTKMoGyTKAsEyjLBMoygbJMoHzr+KNMoCwTKD9tAiXLkUS/iumT7KzT+Cmg4tm7GScqd+cL/4UkG4arGcVOT+72h4PRhP4scnoyGTg0xcTzk2U+BzLzcGMl7XBjde+HGw8WbefceR5MR45lATfhiGNKyDjkmKsg/WbotmTQQ8ElNJZEifQE7N/XgX9k+LhXSSBnuYaE6hunwkb7FPSZfOxxRGTIPPKL8PePe2KymphYK0bAR+scevtxXAin6Q2diJrmRGpv50S+wmdgEkNlcw/RmVjQz3IliCz1U2CAaRv4kdXICV5EJGb6ELHy5h6E61FQZYr/YA2o98gntQ/sOmq5XMfxeudlE7OmVzSsTJpYMhZe0hcRy1SR/jGf/zPDjH/DR/7fA2QfErQ9hAVgol98R9I5hWWaMq5mhBds4KeJUp0oaQYcIb5mwIVtN52ZmPP5qH/5US30lx930PRnYm4HLtvZktP8/WxBxzgL44DNsuvjPeVdZqh+7nWGuODWWWeI97KTtI5vABumgB1a+LnBszXslNBZz+i3gpzt3wSirjOzGenzhQXuZgBYY/QC/KUgIkkjH65UJ0ChmfamMj+F+lCxGJtFbxiJ1dIisfpGkRjhMR6HvT9h3thLD5hkeHHgLInKwm1g17oJl16CldWVYB+fXrg3mE494KdZfesZevz3Iay2B1ceYybnbh1ywVU1LSlVPTypn6qNRkNN8LvHjcOTRv24dqQqvK8VhNAM7mETbitc+w7DEUCRgJl9i2FYh7v9roNCXwNnMmzhLkORh4SYKLFGsfsMwz42ifVFRj70nYaF9FrM/4zwzYaj4jcbRuW787sNw+F2cbvhyRss3uHlOks3wMyxzMQtgMsX+xm8pBxzcfnj6s/ujy654bCjSsOZ7olX4OYEsRyOEwezQMpa3mDWKOO8X3k4Wj2jProvYAvX6KYzLmrzl7v28CTPUlxNiU9Yi8wL0ecUu0XdWrmWfniNJk2pxn6HJHazGl4xZ9PpjyfkXwFHw4ba6R6gstmscZebgP09bgIKCIswkLYN2N/zNmAmj6JSs3YC+59rJ1Cp53Ii1c+wFVhGSkUjpbRAqXF4dHrSUJRqPWmBqqEcHldP68dqfQeB0sontAHGieA9hcKI4+SmzLSadMAw70kjnLfkkW8dVkPLMIDnOS4E3hoRE+Mi7j2jlLwRUvyl1/ekrIcPHRqtqcpiLudicNWekB9FHA7lZ+eh0Ri4qHQnkdHp3mdFwxkkShPAfO0EGXBRYgTUqKlErdE1Wb0CGJXZGHSdNqGDKCsJ1TJnP6vqMuJUZpxuDuAUxgVFpsREEgUYMFu+rxszPNBZ5WDPRwluc5pzmitr4SQ+y+l5TBQhKMMCjfMcZLfIWj48ALPjYkzSv8ZE3eHvWs9sIu2S3oNHTCEVRwtgwGnwt6KsUpyC4BLvvcgEK46DYs5u+K03mpAfRZxdFKHbnGBVi0yvQisOP5lEYfRDEPwf22IqXU7pckqXI7qcECvsd+8VLsZPznhGTjB6jZVIzZz8ZA+dc9yig6ZEJvFifFQxXo8YAd9H0PIkfi6GHAXNPKxILbzB7vVR6AbplI5NtLGOuVT/5i2e1Rn4EFu+VFtBkewhB6uqmiyUa3yqI/WAkWUTj/6JxSqYYK6D6Pv/u9RXv2COAAA=

[PSD]
ActualTwoTheta=9999
FirstUsedChannel=0
FixedPSD=0
PSDOpening=4.99171
PSDType=5

[Drive]
DriveFlags=1
DriveName=2Theta
DriveNumber=2
DriveOffset=0
OffsetIndex=0
OscillationAmplitude=0
OscillationSpeed=0
StartPosition=40.0015

[Drive]
DriveFlags=1
DriveName=Theta
DriveNumber=1
DriveOffset=0
OffsetIndex=0
OscillationAmplitude=0
OscillationSpeed=0
StartPosition=20.0007

[Drive]
DriveFlags=1
DriveName=Phi
DriveNumber=3
DriveOffset=0
OffsetIndex=0
OscillationAmplitude=0
OscillationSpeed=0
StartPosition=0

[Data]
     Angle,       PSD,
   40.0015,       617,
   40.0217,       654,
   40.0418,       652,
    40.062,       638,
   40.0822,       649,
   40.1023,       611,
   40.1225,       612,
   40.1427,       611,
   40.1628,       616,
    40.183,       616,
   40.2032,       619,
   40.2233,       611,
   40.2435,       618,
   40.2637,       617,
   40.2838,       643,
    40.304,       647,
   40.3242,       609,
   40.3444,       647,
   40.3645,       590,
   40.3847,       626,
   40.4049,       639,
    40.425,       638,
   40.4452,       634,
   40.4654,       647,
   40.4855,       618,
   40.5057,       617,
   40.5259,       665,
    40.546,       595,
   40.5662,       636,
   40.5864,       619,
   40.6065,       639,
   40.6267,       666,
   40.6469,       611,
   40.6671,       643,
   40.6872,       661,
   40.7074,       611,
   40.7276,       602,
   40.7477,       641,
   40.7679,       650,
   40.7881,       618,
   40.8082,       605,
   40.8284,       623,
   40.8486,       639,
   40.8687,       683,
   40.8889,       640,
   40.9091,       663,
   40.9292,       683,
   40.9494,       649,
   40.9696,       639,
   40.9897,       649,
   41.0099,       651,
   41.0301,       648,
   41.0503,       595,
   41.0704,       610,
   41.0906,       620,
   41.1108,       632,
   41.1309,       602,
   41.1511,       626,
   41.1713,       636,
   41.1914,       639,
   41.2116,       614,
   41.2318,       603,
   41.2519,       656,
   41.2721,       608,
   41.2923,       644,
   41.3124,       645,
   41.3326,       634,
   41.3528,       637,
   41.3729,       635,
   41.3931,       628,
   41.4133,       606,
   41.4335,       607,
   41.4536,       663,
   41.4738,       632,
    41.494,       633,
   41.5141,       627,
   41.5343,       649,
   41.5545,       614,
   41.5746,       617,
   41.5948,       648,
    41.615,       609,
   41.6351,       655,
   41.6553,       660,
   41.6755,       619,
   41.6956,       674,
   41.7158,       689,
    41.736,       727,
   41.7562,       620,
   41.7763,       646,
   41.7965,       610,
   41.8167,       665,
   41.8368,       648,
    41.857,       655,
   41.8772,       694,
   41.8973,       669,
   41.9175,       652,
   41.9377,       753,
   41.9578,       667,
    41.978,       691,
   41.9982,       733,
   42.0183,       695,
   42.0385,       721,
   42.0587,       759,
   42.0788,       707,
    42.099,       718,
   42.1192,       717,
   42.1394,       734,
   42.1595,       777,
   42.1797,       778,
   42.1999,       754,
     42.22,       702,
   42.2402,       768,
   42.2604,       791,
   42.2805,       785,
   42.3007,       762,
   42.3209,       760,
    42.341,       787,
   42.3612,       738,
   42.3814,       814,
   42.4015,       740,
   42.4217,       754,
   42.4419,       745,
    42.462,       769,
   42.4822,       738,
   42.5024,       758,
   42.5226,       761,
   42.5427,       753,
   42.5629,       792,
   42.5831,       837,
   42.6032,       796,
   42.6234,       814,
   42.6436,       798,
   42.6637,       798,
   42.6839,       843,
   42.7041,       818,
   42.7242,       809,
   42.7444,       813,
   42.7646,       785,
   42.7847,       837,
   42.8049,       822,
   42.8251,       847,
   42.8453,       837,
   42.8654,       886,
   42.8856,       907,
   42.9058,       903,
   42.9259,       970,
   42.9461,       911,
   42.9663,       947,
   42.9864,       998,
   43.0066,      1011,
   43.0268,      1006,
   43.0469,      1129,
   43.0671,      1137,
   43.0873,      1203,
   43.1074,      1305,
   43.1276,      1343,
   43.1478,      1385,
   43.1679,      1447,
   43.1881,      1495,
   43.2083,      1651,
   43.2285,      1708,
   43.2486,      1859,
   43.2688,      2142,
    43.289,      2416,
   43.3091,      2541,
   43.3293,      2774,
   43.3495,      3150,
   43.3696,      3641,
   43.3898,      4248,
     43.41,      5369,
   43.4301,      7532,
   43.4503,     12097,
   43.4705,     23468,
   43.4906,     38388,
   43.5108,     40952,
    43.531,     27305,
   43.5511,     16137,
   43.5713,     13732,
   43.5915,     18452,
   43.6117,     23279,
   43.6318,     20133,
    43.652,     12314,
   43.6722,      7036,
   43.6923,      4764,
   43.7125,      3743,
   43.7327,      3278,
   43.7528,      2920,
    43.773,      2514,
   43.7932,      2319,
   43.8133,      2077,
   43.8335,      1911,
   43.8537,      1696,
   43.8738,      1558,
    43.894,      1509,
   43.9142,      1419,
   43.9344,      1367,
   43.9545,      1244,
   43.9747,      1150,
   43.9949,      1126,
    44.015,      1086,
   44.0352,      1010,
   44.0554,      1020,
   44.0755,      1018,
   44.0957,       967,
   44.1159,       936,
    44.136,       918,
   44.1562,       980,
   44.1764,       882,
   44.1965,       882,
   44.2167,       919,
   44.2369,       889,
    44.257,       872,
   44.2772,       824,
   44.2974,       882,
   44.3176,       860,
   44.3377,       776,
   44.3579,       831,
   44.3781,       741,
   44.3982,       779,
   44.4184,       794,
   44.4386,       767,
   44.4587,       824,
   44.4789,       753,
   44.4991,       838,
   44.5192,       818,
   44.5394,       735,
   44.5596,       775,
   44.5797,       800,
   44.5999,       722,
   44.6201,       756,
   44.6402,       794,
   44.6604,       762,
   44.6806,       715,
   44.7008,       811,
   44.7209,       719,
   44.7411,       751,
   44.7613,       767,
   44.7814,       778,
   44.8016,       752,
   44.8218,       719,
   44.8419,       762,
   44.8621,       738,
   44.8823,       718,
   44.9024,       711,
   44.9226,       747,
   44.9428,       710,
   44.9629,       727,
   44.9831,       750,
   45.0033,       701,
   45.0235,       714,
   45.0436,       736,
   45.0638,       720,
    45.084,       732,
   45.1041,       684,
   45.1243,       757,
   45.1445,       743,
   45.1646,       683,
   45.1848,       751,
    45.205,       774,
   45.2251,       746,
   45.2453,       678,
   45.2655,       687,
   45.2856,       703,
   45.3058,       692,
    45.326,       716,
   45.3461,       717,
   45.3663,       736,
   45.3865,       691,
   45.4067,       747,
   45.4268,       680,
    45.447,       700,
   45.4672,       732,
   45.4873,       767,
   45.5075,       658,
   45.5277,       710,
   45.5478,       727,
    45.568,       681,
   45.5882,       740,
   45.6083,       701,
   45.6285,       705,
   45.6487,       741,
   45.6688,       673,
    45.689,       709,
   45.7092,       698,
   45.7294,       705,
   45.7495,       684,
   45.7697,       692,
   45.7899,       664,
     45.81,       684,
   45.8302,       687,
   45.8504,       722,
   45.8705,       675,
   45.8907,       697,
   45.9109,       678,
    45.931,       680,
   45.9512,       692,
   45.9714,       718,
   45.9915,       696,
   46.0117,       660,
   46.0319,       648,
    46.052,       674,
   46.0722,       691,
   46.0924,       684,
   46.1126,       715,
   46.1327,       681,
   46.1529,       695,
   46.1731,       707,
   46.1932,       713,
   46.2134,       671,
   46.2336,       685,
   46.2537,       722,
   46.2739,       663,
   46.2941,       688,
   46.3142,       669,
   46.3344,       678,
   46.3546,       654,
   46.3747,       685,
   46.3949,       670,
   46.4151,       669,
   46.4352,       693,
   46.4554,       687,
   46.4756,       698,
   46.4958,       683,
   46.5159,       691,
   46.5361,       699,
   46.5563,       639,
   46.5764,       676,
   46.5966,       662,
   46.6168,       631,
   46.6369,       655,
   46.6571,       652,
   46.6773,       680,
   46.6974,       680,
   46.7176,       646,
   46.7378,       689,
   46.7579,       650,
   46.7781,       684,
   46.7983,       670,
   46.8185,       662,
   46.8386,       692,
   46.8588,       693,
    46.879,       714,
   46.8991,       646,
   46.9193,       639,
   46.9395,       648,
   46.9596,       651,
   46.9798,       672,
        47,       647,
   47.0201,       707,
   47.0403,       681,
   47.0605,       708,
   47.0806,       661,
   47.1008,       665,
    47.121,       714,
   47.1411,       683,
   47.1613,       702,
   47.1815,       688,
   47.2017,       657,
   47.2218,       731,
    47.242,       671,
   47.2622,       705,
   47.2823,       677,
   47.3025,       659,
   47.3227,       701,
   47.3428,       688,
    47.363,       639,
   47.3832,       683,
   47.4033,       668,
   47.4235,       686,
   47.4437,       671,
   47.4638,       628,
    47.484,       680,
   47.5042,       676,
   47.5243,       674,
   47.5445,       697,
   47.5647,       667,
   47.5849,       711,
    47.605,       655,
   47.6252,       639,
   47.6454,       637,
   47.6655,       661,
   47.6857,       632,
   47.7059,       689,
    47.726,       649,
   47.7462,       670,
   47.7664,       671,
   47.7865,       693,
   47.8067,       666,
   47.8269,       643,
    47.847,       679,
   47.8672,       684,
   47.8874,       675,
   47.9076,       677,
   47.9277,       647,
   47.9479,       682,
   47.9681,       704,
   47.9882,       695,
   48.0084,       639,
   48.0286,       618,
   48.0487,       671,
   48.0689,       625,
   48.0891,       676,
   48.1092,       705,
   48.1294,       627,
   48.1496,       661,
   48.1697,       660,
   48.1899,       637,
   48.2101,       646,
   48.2302,       658,
   48.2504,       651,
   48.2706,       677,
   48.2908,       639,
   48.3109,       657,
   48.3311,       673,
   48.3513,       694,
   48.3714,       700,
   48.3916,       666,
   48.4118,       711,
   48.4319,       669,
   48.4521,       667,
   48.4723,       704,
   48.4924,       680,
   48.5126,       679,
   48.5328,       680,
   48.5529,       647,
   48.5731,       677,
   48.5933,       672,
   48.6134,       621,
   48.6336,       674,
   48.6538,       661,
    48.674,       638,
   48.6941,       674,
   48.7143,       656,
   48.7345,       697,
   48.7546,       618,
   48.7748,       683,
    48.795,       700,
   48.8151,       703,
   48.8353,       713,
   48.8555,       650,
   48.8756,       674,
   48.8958,       680,
    48.916,       725,
   48.9361,       684,
   48.9563,       703,
   48.9765,       643,
   48.9967,       716,
   49.0168,       705,
    49.037,       687,
   49.0572,       683,
   49.0773,       693,
   49.0975,       647,
   49.1177,       671,
   49.1378,       698,
    49.158,       670,
   49.1782,       655,
   49.1983,       687,
   49.2185,       735,
   49.2387,       707,
   49.2588,       717,
    49.279,       681,
   49.2992,       701,
   49.3193,       753,
   49.3395,       713,
   49.3597,       709,
   49.3799,       617,
      49.4,       713,
   49.4202,       728,
   49.4404,       742,
   49.4605,       698,
   49.4807,       742,
   49.5009,       722,
    49.521,       684,
   49.5412,       674,
   49.5614,       737,
   49.5815,       747,
   49.6017,       706,
   49.6219,       677,
    49.642,       754,
   49.6622,       721,
   49.6824,       738,
   49.7025,       717,
   49.7227,       691,
   49.7429,       716,
   49.7631,       744,
   49.7832,       758,
   49.8034,       748,
   49.8236,       729,
   49.8437,       743,
   49.8639,       800,
   49.8841,       763,
   49.9042,       790,
   49.9244,       763,
   49.9446,       767,
   49.9647,       766,
   49.9849,       769,
   50.0051,       794,
   50.0252,       858,
   50.0454,       853,
   50.0656,       869,
   50.0858,       857,
   50.1059,       801,
   50.1261,       853,
   50.1463,       895,
   50.1664,       893,
   50.1866,       892,
   50.2068,      1030,
   50.2269,       971,
   50.2471,      1047,
   50.2673,      1041,
   50.2874,      1070,
   50.3076,      1136,
   50.3278,      1191,
   50.3479,      1295,
   50.3681,      1318,
   50.3883,      1345,
   50.4084,      1436,
   50.4286,      1605,
   50.4488,      1581,
    50.469,      1762,
   50.4891,      1866,
   50.5093,      2061,
   50.5295,      2361,
   50.5496,      3117,
   50.5698,      4247,
     50.59,      6355,
   50.6101,      8879,
   50.6303,      9923,
   50.6505,      8714,
   50.6706,      6259,
   50.6908,      4657,
    50.711,      4420,
   50.7311,      4934,
   50.7513,      5656,
   50.7715,      5794,
   50.7917,      4701,
   50.8118,      3238,
    50.832,      2514,
   50.8522,      2010,
   50.8723,      1802,
   50.8925,      1518,
   50.9127,      1437,
   50.9328,      1359,
    50.953,      1300,
   50.9732,      1195,
   50.9933,      1178,
   51.0135,      1039,
   51.0337,      1030,
   51.0538,      1030,
    51.074,      1026,
   51.0942,       982,
   51.1143,       954,
   51.1345,       889,
   51.1547,       834,
   51.1749,       843,
    51.195,       836,
   51.2152,       832,
   51.2354,       784,
   51.2555,       846,
   51.2757,       791,
   51.2959,       813,
    51.316,       753,
   51.3362,       773,
   51.3564,       783,
   51.3765,       756,
   51.3967,       742,
   51.4169,       740,
    51.437,       764,
   51.4572,       713,
   51.4774,       699,
   51.4975,       728,
   51.5177,       688,
   51.5379,       723,
   51.5581,       702,
   51.5782,       713,
   51.5984,       705,
   51.6186,       686,
   51.6387,       672,
   51.6589,       685,
   51.6791,       638,
   51.6992,       754,
   51.7194,       714,
   51.7396,       650,
   51.7597,       701,
   51.7799,       674,
   51.8001,       640,
   51.8202,       656,
   51.8404,       723,
   51.8606,       653,
   51.8808,       652,
   51.9009,       682,
   51.9211,       668,
   51.9413,       692,
   51.9614,       691,
   51.9816,       693,
   52.0018,       684,
   52.0219,       657,
   52.0421,       644,
   52.0623,       680,
   52.0824,       675,
   52.1026,       640,
   52.1228,       679,
   52.1429,       691,
   52.1631,       669,
   52.1833,       719,
   52.2034,       672,
   52.2236,       645,
   52.2438,       633,
    52.264,       679,
   52.2841,       644,
   52.3043,       690,
   52.3245,       668,
   52.3446,       638,
   52.3648,       639,
    52.385,       635,
   52.4051,       633,
   52.4253,       670,
   52.4455,       641,
   52.4656,       612,
   52.4858,       641,
    52.506,       657,
   52.5261,       677,
   52.5463,       625,
   52.5665,       661,
   52.5866,       659,
   52.6068,       621,
    52.627,       657,
   52.6472,       648,
   52.6673,       644,
   52.6875,       633,
   52.7077,       633,
   52.7278,       634,
    52.748,       636,
   52.7682,       628,
   52.7883,       604,
   52.8085,       608,
   52.8287,       646,
   52.8488,       693,
    52.869,       608,
   52.8892,       612,
   52.9093,       626,
   52.9295,       640,
   52.9497,       636,
   52.9699,       619,
     52.99,       671,
   53.0102,       616,
   53.0304,       633,
   53.0505,       639,
   53.0707,       661,
   53.0909,       607,
    53.111,       598,
   53.1312,       659,
   53.1514,       628,
   53.1715,       655,
   53.1917,       616,
   53.2119,       629,
    53.232,       645,
   53.2522,       592,
   53.2724,       643,
   53.2925,       653,
   53.3127,       637,
   53.3329,       621,
   53.3531,       682,
   53.3732,       642,
   53.3934,       629,
   53.4136,       682,
   53.4337,       599,
   53.4539,       638,
   53.4741,       647,
   53.4942,       615,
   53.5144,       680,
   53.5346,       610,
   53.5547,       708,
   53.5749,       654,
   53.5951,       615,
   53.6152,       644,
   53.6354,       645,
   53.6556,       607,
   53.6757,       622,
   53.6959,       637,
   53.7161,       653,
   53.7363,       635,
   53.7564,       660,
   53.7766,       616,
   53.7968,       631,
   53.8169,       614,
   53.8371,       622,
   53.8573,       646,
   53.8774,       644,
   53.8976,       651,
   53.9178,       641,
   53.9379,       639,
   53.9581,       590,
   53.9783,       642,
   53.9984,       619,
   54.0186,       624,
   54.0388,       629,
    54.059,       610,
   54.0791,       619,
   54.0993,       623,
   54.1195,       590,
   54.1396,       614,
   54.1598,       642,
     54.18,       627,
   54.2001,       609,
   54.2203,       603,
   54.2405,       613,
   54.2606,       601,
   54.2808,       617,
    54.301,       627,
   54.3211,       634,
   54.3413,       640,
   54.3615,       618,
   54.3816,       678,
   54.4018,       650,
    54.422,       602,
   54.4422,       606,
   54.4623,       637,
   54.4825,       657,
   54.5027,       634,
   54.5228,       636,
    54.543,       631,
   54.5632,       638,
   54.5833,       619,
   54.6035,       635,
   54.6237,       622,
   54.6438,       608,
    54.664,       635,
   54.6842,       605,
   54.7043,       628,
   54.7245,       630,
   54.7447,       618,
   54.7648,       615,
    54.785,       615,
   54.8052,       653,
   54.8254,       606,
   54.8455,       628,
   54.8657,       614,
   54.8859,       603,
    54.906,       604,
   54.9262,       592,
   54.9464,       609,
   54.9665,       667,
   54.9867,       600,
   55.0069,       608,
    55.027,       568,
   55.0472,       637,
   55.0674,       632,
   55.0875,       599,
   55.1077,       635,
   55.1279,       568,
   55.1481,       634,
   55.1682,       614,
   55.1884,       638,
   55.2086,       612,
   55.2287,       589,
   55.2489,       606,
   55.2691,       658,
   55.2892,       656,
   55.3094,       570,
   55.3296,       628,
   55.3497,       612,
   55.3699,       600,
   55.3901,       585,
   55.4102,       615,
   55.4304,       640,
   55.4506,       648,
   55.4707,       575,
   55.4909,       633,
   55.5111,       569,
   55.5313,       591,
   55.5514,       639,
   55.5716,       612,
   55.5918,       610,
   55.6119,       611,
   55.6321,       612,
   55.6523,       629,
   55.6724,       642,
   55.6926,       633,
   55.7128,       592,
   55.7329,       627,
   55.7531,       633,
   55.7733,       600,
   55.7934,       552,
   55.8136,       611,
   55.8338,       593,
    55.854,       598,
   55.8741,       628,
   55.8943,       628,
   55.9145,       560,
   55.9346,       605,
   55.9548,       571,
    55.975,       619,
   55.9951,       620,
   56.0153,       566,
   56.0355,       653,
   56.0556,       622,
   56.0758,       614,
    56.096,       622,
   56.1161,       658,
   56.1363,       592,
   56.1565,       611,
   56.1766,       659,
   56.1968,       595,
    56.217,       606,
   56.2372,       608,
   56.2573,       592,
   56.2775,       606,
   56.2977,       623,
   56.3178,       573,
    56.338,       622,
   56.3582,       576,
   56.3783,       648,
   56.3985,       589,
   56.4187,       646,
   56.4388,       579,
    56.459,       648,
   56.4792,       634,
   56.4993,       646,
   56.5195,       608,
   56.5397,       651,
   56.5598,       637,
     56.58,       601,
   56.6002,       594,
   56.6204,       604,
   56.6405,       595,
   56.6607,       637,
   56.6809,       624,
    56.701,       605,
   56.7212,       635,
   56.7414,       605,
   56.7615,       612,
   56.7817,       609,
   56.8019,       626,
    56.822,       597,
   56.8422,       653,
   56.8624,       585,
   56.8825,       588,
   56.9027,       621,
   56.9229,       627,
   56.9431,       606,
   56.9632,       617,
   56.9834,       590,
   57.0036,       640,
   57.0237,       611,
   57.0439,       620,
   57.0641,       650,
   57.0842,       660,
   57.1044,       603,
   57.1246,       614,
   57.1447,       627,
   57.1649,       622,
   57.1851,       608,
   57.2052,       617,
   57.2254,       633,
   57.2456,       604,
   57.2657,       651,
   57.2859,       625,
   57.3061,       585,
   57.3263,       601,
   57.3464,       633,
   57.3666,       582,
   57.3868,       621,
   57.4069,       589,
   57.4271,       644,
   57.4473,       636,
   57.4674,       651,
   57.4876,       609,
   57.5078,       607,
   57.5279,       608,
   57.5481,       661,
   57.5683,       587,
   57.5884,       636,
   57.6086,       582,
   57.6288,       585,
   57.6489,       596,
   57.6691,       574,
   57.6893,       577,
   57.7095,       588,
   57.7296,       609,
   57.7498,       600,
     57.77,       608,
   57.7901,       596,
   57.8103,       614,
   57.8305,       567,
   57.8506,       606,
   57.8708,       581,
    57.891,       664,
   57.9111,       586,
   57.9313,       610,
   57.9515,       585,
   57.9716,       589,
   57.9918,       604,
    58.012,       632,
   58.0322,       655,
   58.0523,       623,
   58.0725,       644,
   58.0927,       592,
   58.1128,       606,
    58.133,       555,
   58.1532,       585,
   58.1733,       646,
   58.1935,       649,
   58.2137,       627,
   58.2338,       614,
    58.254,       606,
   58.2742,       651,
   58.2943,       622,
   58.3145,       567,
   58.3347,       607,
   58.3548,       659,
    58.375,       634,
   58.3952,       596,
   58.4154,       608,
   58.4355,       603,
   58.4557,       632,
   58.4759,       625,
    58.496,       595,
   58.5162,       608,
   58.5364,       623,
   58.5565,       598,
   58.5767,       589,
   58.5969,       589,
    58.617,       599,
   58.6372,       617,
   58.6574,       586,
   58.6775,       596,
   58.6977,       585,
   58.7179,       611,
    58.738,       579,
   58.7582,       538,
   58.7784,       627,
   58.7986,       611,
   58.8187,       592,
   58.8389,       597,
   58.8591,       625,
   58.8792,       629,
   58.8994,       619,
   58.9196,       667,
   58.9397,       602,
   58.9599,       626,
   58.9801,       628,
   59.0002,       568,
   59.0204,       601,
   59.0406,       633,
   59.0607,       619,
   59.0809,       569,
   59.1011,       648,
   59.1213,       583,
   59.1414,       642,
   59.1616,       575,
   59.1818,       583,
   59.2019,       582,
   59.2221,       630,
   59.2423,       588,
   59.2624,       602,
   59.2826,       655,
   59.3028,       571,
   59.3229,       606,
   59.3431,       612,
   59.3633,       592,
   59.3834,       549,
   59.4036,       597,
   59.4238,       599,
   59.4439,       595,
   59.4641,       648,
   59.4843,       627,
   59.5045,       616,
   59.5246,       572,
   59.5448,       581,
    59.565,       603,
   59.5851,       621,
   59.6053,       607,
   59.6255,       589,
   59.6456,       621,
   59.6658,       607,
    59.686,       612,
   59.7061,       641,
   59.7263,       632,
   59.7465,       620,
   59.7666,       558,
   59.7868,       581,
    59.807,       575,
   59.8271,       609,
   59.8473,       579,
   59.8675,       627,
   59.8877,       582,
   59.9078,       635,
    59.928,       592,
   59.9482,       642,
   59.9683,       616,
   59.9885,       589,
   60.0087,       583,
   60.0288,       631,
    60.049,       616,
   60.0692,       614,
   60.0893,       605,
   60.1095,       565,
   60.1297,       620,
   60.1498,       659,
     60.17,       604,
   60.1902,       610,
   60.2104,       594,
   60.2305,       585,
   60.2507,       549,
   60.2709,       584,
    60.291,       603,
   60.3112,       580,
   60.3314,       648,
   60.3515,       588,
   60.3717,       628,
   60.3919,       557,
    60.412,       595,
   60.4322,       595,
   60.4524,       629,
   60.4725,       613,
   60.4927,       554,
   60.5129,       608,
    60.533,       611,
   60.5532,       586,
   60.5734,       636,
   60.5936,       599,
   60.6137,       621,
   60.6339,       618,
   60.6541,       610,
   60.6742,       595,
   60.6944,       572,
   60.7146,       606,
   60.7347,       659,
   60.7549,       647,
   60.7751,       588,
   60.7952,       603,
   60.8154,       601,
   60.8356,       587,
   60.8557,       585,
   60.8759,       602,
   60.8961,       561,
   60.9163,       600,
   60.9364,       612,
   60.9566,       592,
   60.9768,       606,
   60.9969,       596,
   61.0171,       614,
   61.0373,       612,
   61.0574,       612,
   61.0776,       589,
   61.0978,       598,
   61.1179,       575,
   61.1381,       634,
   61.1583,       628,
   61.1784,       612,
   61.1986,       633,
   61.2188,       581,
   61.2389,       566,
   61.2591,       577,
   61.2793,       635,
   61.2995,       637,
   61.3196,       596,
   61.3398,       583,
     61.36,       605,
   61.3801,       556,
   61.4003,       581,
   61.4205,       633,
   61.4406,       600,
   61.4608,       589,
    61.481,       580,
   61.5011,       596,
   61.5213,       641,
   61.5415,       612,
   61.5616,       590,
   61.5818,       656,
    61.602,       602,
   61.6221,       615,
   61.6423,       581,
   61.6625,       602,
   61.6827,       621,
   61.7028,       584,
    61.723,       597,
   61.7432,       555,
   61.7633,       603,
   61.7835,       588,
   61.8037,       623,
   61.8238,       595,
    61.844,       592,
   61.8642,       638,
   61.8843,       581,
   61.9045,       591,
   61.9247,       570,
   61.9448,       597,
    61.965,       562,
   61.9852,       580,
   62.0054,       573,
   62.0255,       616,
   62.0457,       587,
   62.0659,       585,
    62.086,       604,
   62.1062,       633,
   62.1264,       582,
   62.1465,       570,
   62.1667,       566,
   62.1869,       592,
    62.207,       599,
   62.2272,       590,
   62.2474,       603,
   62.2675,       568,
   62.2877,       556,
   62.3079,       571,
    62.328,       565,
   62.3482,       610,
   62.3684,       551,
   62.3886,       590,
   62.4087,       560,
   62.4289,       576,
   62.4491,       596,
   62.4692,       584,
   62.4894,       628,
   62.5096,       610,
   62.5297,       568,
   62.5499,       603,
   62.5701,       565,
   62.5902,       578,
   62.6104,       606,
   62.6306,       610,
   62.6507,       632,
   62.6709,       551,
   62.6911,       567,
   62.7112,       615,
   62.7314,       541,
   62.7516,       621,
   62.7718,       614,
   62.7919,       592,
   62.8121,       612,
   62.8323,       584,
   62.8524,       588,
   62.8726,       544,
   62.8928,       597,
   62.9129,       595,
   62.9331,       586,
   62.9533,       614,
   62.9734,       556,
   62.9936,       558,
   63.0138,       578,
   63.0339,       594,
   63.0541,       608,
   63.0743,       625,
   63.0945,       570,
   63.1146,       633,
   63.1348,       629,
    63.155,       577,
   63.1751,       536,
   63.1953,       636,
   63.2155,       633,
   63.2356,       616,
   63.2558,       601,
    63.276,       596,
   63.2961,       617,
   63.3163,       562,
   63.3365,       558,
   63.3566,       601,
   63.3768,       575,
    63.397,       619,
   63.4171,       621,
   63.4373,       575,
   63.4575,       598,
   63.4777,       572,
   63.4978,       569,
    63.518,       583,
   63.5382,       592,
   63.5583,       603,
   63.5785,       561,
   63.5987,       632,
   63.6188,       580,
    63.639,       607,
   63.6592,       590,
   63.6793,       657,
   63.6995,       571,
   63.7197,       559,
   63.7398,       562,
     63.76,       628,
   63.7802,       587,
   63.8003,       578,
   63.8205,       567,
   63.8407,       609,
   63.8609,       598,
    63.881,       556,
   63.9012,       602,
   63.9214,       592,
   63.9415,       615,
   63.9617,       599,
   63.9819,       589,
    64.002,       588,
   64.0222,       604,
   64.0424,       602,
   64.0625,       623,
   64.0827,       597,
   64.1029,       614,
    64.123,       609,
   64.1432,       592,
   64.1634,       563,
   64.1836,       625,
   64.2037,       610,
   64.2239,       604,
   64.2441,       603,
   64.2642,       628,
   64.2844,       604,
   64.3046,       594,
   64.3247,       596,
   64.3449,       561,
   64.3651,       571,
   64.3852,       584,
   64.4054,       597,
   64.4256,       594,
   64.4457,       577,
   64.4659,       574,
   64.4861,       584,
   64.5062,       606,
   64.5264,       596,
   64.5466,       562,
   64.5668,       565,
   64.5869,       601,
   64.6071,       643,
   64.6273,       614,
   64.6474,       624,
   64.6676,       581,
   64.6878,       544,
   64.7079,       587,
   64.7281,       598,
   64.7483,       578,
   64.7684,       616,
   64.7886,       571,
   64.8088,       611,
   64.8289,       595,
   64.8491,       603,
   64.8693,       603,
   64.8894,       625,
   64.9096,       606,
   64.9298,       583,
     64.95,       597,
   64.9701,       616,
   64.9903,       610,
   65.0105,       620,
   65.0306,       576,
   65.0508,       625,
    65.071,       597,
   65.0911,       537,
   65.1113,       581,
   65.1315,       600,
   65.1516,       589,
   65.1718,       609,
    65.192,       600,
   65.2121,       575,
   65.2323,       601,
   65.2525,       608,
   65.2727,       552,
   65.2928,       577,
    65.313,       605,
   65.3332,       596,
   65.3533,       564,
   65.3735,       589,
   65.3937,       581,
   65.4138,       576,
    65.434,       589,
   65.4542,       578,
   65.4743,       600,
   65.4945,       596,
   65.5147,       583,
   65.5348,       580,
    65.555,       639,
   65.5752,       621,
   65.5953,       581,
   65.6155,       563,
   65.6357,       633,
   65.6559,       606,
    65.676,       601,
   65.6962,       568,
   65.7164,       625,
   65.7365,       625,
   65.7567,       567,
   65.7769,       587,
    65.797,       576,
   65.8172,       593,
   65.8374,       573,
   65.8575,       596,
   65.8777,       573,
   65.8979,       555,
    65.918,       579,
   65.9382,       614,
   65.9584,       544,
   65.9786,       611,
   65.9987,       600,
   66.0189,       566,
   66.0391,       609,
   66.0592,       595,
   66.0794,       576,
   66.0996,       624,
   66.1197,       635,
   66.1399,       576,
   66.1601,       654,
   66.1802,       589,
   66.2004,       605,
   66.2206,       613,
   66.2407,       589,
   66.2609,       587,
   66.2811,       607,
   66.3012,       622,
   66.3214,       559,
   66.3416,       600,
   66.3618,       584,
   66.3819,       619,
   66.4021,       599,
   66.4223,       607,
   66.4424,       626,
   66.4626,       567,
   66.4828,       631,
   66.5029,       577,
   66.5231,       544,
   66.5433,       559,
   66.5634,       615,
   66.5836,       591,
   66.6038,       568,
   66.6239,       557,
   66.6441,       579,
   66.6643,       585,
   66.6844,       606,
   66.7046,       597,
   66.7248,       595,
    66.745,       570,
   66.7651,       597,
   66.7853,       594,
   66.8055,       599,
   66.8256,       595,
   66.8458,       593,
    66.866,       614,
   66.8861,       577,
   66.9063,       606,
   66.9265,       622,
   66.9466,       585,
   66.9668,       602,
    66.987,       576,
   67.0071,       540,
   67.0273,       592,
   67.0475,       603,
   67.0677,       612,
   67.0878,       606,
    67.108,       622,
   67.1282,       590,
   67.1483,       596,
   67.1685,       570,
   67.1887,       592,
   67.2088,       605,
    67.229,       569,
   67.2492,       577,
   67.2693,       608,
   67.2895,       606,
   67.3097,       586,
   67.3298,       636,
     67.35,       597,
   67.3702,       616,
   67.3903,       582,
   67.4105,       552,
   67.4307,       624,
   67.4509,       566,
    67.471,       588,
   67.4912,       589,
   67.5114,       593,
   67.5315,       593,
   67.5517,       579,
   67.5719,       610,
    67.592,       582,
   67.6122,       629,
   67.6324,       615,
   67.6525,       594,
   67.6727,       581,
   67.6929,       598,
    67.713,       599,
   67.7332,       582,
   67.7534,       596,
   67.7735,       587,
   67.7937,       552,
   67.8139,       553,
   67.8341,       612,
   67.8542,       594,
   67.8744,       547,
   67.8946,       581,
   67.9147,       610,
   67.9349,       612,
   67.9551,       571,
   67.9752,       604,
   67.9954,       544,
   68.0156,       608,
   68.0357,       593,
   68.0559,       617,
   68.0761,       592,
   68.0962,       582,
   68.1164,       595,
   68.1366,       603,
   68.1568,       552,
   68.1769,       543,
   68.1971,       614,
   68.2173,       611,
   68.2374,       572,
   68.2576,       538,
   68.2778,       592,
   68.2979,       589,
   68.3181,       637,
   68.3383,       601,
   68.3584,       591,
   68.3786,       614,
   68.3988,       571,
   68.4189,       602,
   68.4391,       612,
   68.4593,       569,
   68.4794,       641,
   68.4996,       600,
   68.5198,       587,
     68.54,       591,
   68.5601,       574,
   68.5803,       602,
   68.6005,       637,
   68.6206,       612,
   68.6408,       575,
    68.661,       603,
   68.6811,       553,
   68.7013,       474,
   68.7215,       616,
   68.7416,       586,
   68.7618,       578,
    68.782,       557,
   68.8021,       599,
   68.8223,       625,
   68.8425,       606,
   68.8626,       559,
   68.8828,       589,
    68.903,       562,
   68.9232,       573,
   68.9433,       604,
   68.9635,       579,
   68.9837,       597,
   69.0038,       621,
    69.024,       580,
   69.0442,       566,
   69.0643,       559,
   69.0845,       566,
   69.1047,       576,
   69.1248,       596,
    69.145,       609,
   69.1652,       600,
   69.1853,       601,
   69.2055,       553,
   69.2257,       635,
   69.2459,       585,
    69.266,       548,
   69.2862,       568,
   69.3064,       571,
   69.3265,       592,
   69.3467,       577,
   69.3669,       579,
    69.387,       603,
   69.4072,       563,
   69.4274,       585,
   69.4475,       602,
   69.4677,       602,
   69.4879,       585,
    69.508,       642,
   69.5282,       582,
   69.5484,       594,
   69.5685,       593,
   69.5887,       642,
   69.6089,       598,
   69.6291,       625,
   69.6492,       608,
   69.6694,       642,
   69.6896,       574,
   69.7097,       589,
   69.7299,       581,
   69.7501,       563,
   69.7702,       589,
   69.7904,       607,
   69.8106,       571,
   69.8307,       593,
   69.8509,       549,
   69.8711,       596,
   69.8912,       601,
   69.9114,       600,
   69.9316,       593,
   69.9517,       564,
   69.9719,       588,
   69.9921,       593,
   70.0123,       590,
   70.0324,       582,
   70.0526,       583,
   70.0728,       610,
   70.0929,       598,
   70.1131,       574,
   70.1333,       607,
   70.1534,       602,
   70.1736,       568,
   70.1938,       570,
   70.2139,       635,
   70.2341,       577,
   70.2543,       587,
   70.2744,       577,
   70.2946,       625,
   70.3148,       586,
    70.335,       578,
   70.3551,       588,
   70.3753,       573,
   70.3955,       630,
   70.4156,       584,
   70.4358,       585,
    70.456,       531,
   70.4761,       589,
   70.4963,       596,
   70.5165,       667,
   70.5366,       610,
   70.5568,       574,
    70.577,       590,
   70.5971,       571,
   70.6173,       568,
   70.6375,       607,
   70.6576,       562,
   70.6778,       572,
    70.698,       570,
   70.7182,       569,
   70.7383,       569,
   70.7585,       582,
   70.7787,       591,
   70.7988,       616,
    70.819,       628,
   70.8392,       587,
   70.8593,       599,
   70.8795,       593,
   70.8997,       602,
   70.9198,       579,
     70.94,       595,
   70.9602,       570,
   70.9803,       594,
   71.0005,       583,
   71.0207,       625,
   71.0409,       580,
    71.061,       571,
   71.0812,       592,
   71.1014,       596,
   71.1215,       549,
   71.1417,       578,
   71.1619,       572,
    71.182,       629,
   71.2022,       593,
   71.2224,       596,
   71.2425,       556,
   71.2627,       636,
   71.2829,       614,
    71.303,       613,
   71.3232,       582,
   71.3434,       609,
   71.3635,       651,
   71.3837,       612,
   71.4039,       657,
   71.4241,       573,
   71.4442,       663,
   71.4644,       608,
   71.4846,       626,
   71.5047,       602,
   71.5249,       606,
   71.5451,       564,
   71.5652,       595,
   71.5854,       612,
   71.6056,       588,
   71.6257,       623,
   71.6459,       640,
   71.6661,       628,
   71.6862,       589,
   71.7064,       589,
   71.7266,       633,
   71.7467,       613,
   71.7669,       615,
   71.7871,       648,
   71.8073,       580,
   71.8274,       635,
   71.8476,       638,
   71.8678,       629,
   71.8879,       599,
   71.9081,       612,
   71.9283,       593,
   71.9484,       609,
   71.9686,       623,
   71.9888,       639,
   72.0089,       600,
   72.0291,       584,
   72.0493,       650,
   72.0694,       619,
   72.0896,       618,
   72.1098,       588,
     72.13,       576,
   72.1501,       589,
   72.1703,       633,
   72.1905,       577,
   72.2106,       603,
   72.2308,       597,
    72.251,       596,
   72.2711,       618,
   72.2913,       587,
   72.3115,       590,
   72.3316,       605,
   72.3518,       647,
    72.372,       620,
   72.3921,       617,
   72.4123,       597,
   72.4325,       552,
   72.4526,       574,
   72.4728,       649,
    72.493,       637,
   72.5132,       609,
   72.5333,       615,
   72.5535,       654,
   72.5737,       586,
   72.5938,       642,
    72.614,       609,
   72.6342,       639,
   72.6543,       609,
   72.6745,       595,
   72.6947,       595,
   72.7148,       577,
    72.735,       639,
   72.7552,       634,
   72.7753,       610,
   72.7955,       617,
   72.8157,       617,
   72.8358,       568,
    72.856,       613,
   72.8762,       583,
   72.8964,       649,
   72.9165,       591,
   72.9367,       609,
   72.9569,       628,
    72.977,       613,
   72.9972,       593,
   73.0174,       596,
   73.0375,       619,
   73.0577,       643,
   73.0779,       566,
    73.098,       618,
   73.1182,       632,
   73.1384,       617,
   73.1585,       632,
   73.1787,       657,
   73.1989,       637,
   73.2191,       640,
   73.2392,       619,
   73.2594,       635,
   73.2796,       590,
   73.2997,       586,
   73.3199,       600,
   73.3401,       591,
   73.3602,       641,
   73.3804,       615,
   73.4006,       662,
   73.4207,       648,
   73.4409,       606,
   73.4611,       648,
   73.4812,       683,
   73.5014,       647,
   73.5216,       699,
   73.5417,       663,
   73.5619,       656,
   73.5821,       641,
   73.6023,       603,
   73.6224,       661,
   73.6426,       656,
   73.6628,       648,
   73.6829,       682,
   73.7031,       637,
   73.7233,       685,
   73.7434,       696,
   73.7636,       683,
   73.7838,       722,
   73.8039,       776,
   73.8241,       736,
   73.8443,       765,
   73.8644,       742,
   73.8846,       781,
   73.9048,       829,
   73.9249,       759,
   73.9451,       836,
   73.9653,       859,
   73.9855,       822,
   74.0056,       858,
   74.0258,       827,
    74.046,       959,
   74.0661,       929,
   74.0863,       984,
   74.1065,      1070,
   74.1266,      1142,
   74.1468,      1277,
    74.167,      1504,
   74.1871,      1757,
   74.2073,      2293,
   74.2275,      3461,
   74.2476,      5487,
   74.2678,      7963,
    74.288,      8758,
   74.3082,      7214,
   74.3283,      4805,
   74.3485,      3102,
   74.3687,      2354,
   74.3888,      1933,
    74.409,      1877,
   74.4292,      2054,
   74.4493,      2669,
   74.4695,      3779,
   74.4897,      4683,
   74.5098,      4791,
     74.53,      3691,
   74.5502,      2604,
   74.5703,      1827,
   74.5905,      1414,
   74.6107,      1158,
   74.6308,      1032,
    74.651,       969,
   74.6712,       903,
   74.6914,       898,
   74.7115,       804,
   74.7317,       790,
   74.7519,       748,
    74.772,       738,
   74.7922,       781,
   74.8124,       713,
   74.8325,       692,
   74.8527,       734,
   74.8729,       693,
    74.893,       695,
   74.9132,       697,
   74.9334,       669,
   74.9535,       705,
   74.9737,       644,
   74.9939,       634,
    75.014,       683,
   75.0342,       680,
   75.0544,       653,
   75.0746,       645,
   75.0947,       671,
   75.1149,       640,
   75.1351,       606,
   75.1552,       626,
   75.1754,       615,
   75.1956,       659,
   75.2157,       620,
   75.2359,       642,
   75.2561,       659,
   75.2762,       634,
   75.2964,       692,
   75.3166,       622,
   75.3367,       606,
   75.3569,       676,
   75.3771,       624,
   75.3973,       623,
   75.4174,       649,
   75.4376,       657,
   75.4578,       623,
   75.4779,       670,
   75.4981,       650,
   75.5183,       599,
   75.5384,       646,
   75.5586,       649,
   75.5788,       567,
   75.5989,       615,
   75.6191,       623,
   75.6393,       627,
   75.6594,       623,
   75.6796,       634,
   75.6998,       609,
   75.7199,       628,
   75.7401,       617,
   75.7603,       577,
   75.7805,       611,
   75.8006,       609,
   75.8208,       617,
    75.841,       656,
   75.8611,       641,
   75.8813,       625,
   75.9015,       594,
   75.9216,       635,
   75.9418,       631,
    75.962,       633,
   75.9821,       615,
   76.0023,       597,
   76.0225,       610,
   76.0426,       546,
   76.0628,       625,
    76.083,       592,
   76.1032,       612,
   76.1233,       571,
   76.1435,       627,
   76.1637,       619,
   76.1838,       616,
    76.204,       613,
   76.2242,       589,
   76.2443,       622,
   76.2645,       605,
   76.2847,       588,
   76.3048,       609,
    76.325,       588,
   76.3452,       556,
   76.3653,       592,
   76.3855,       628,
   76.4057,       604,
   76.4258,       621,
    76.446,       596,
   76.4662,       603,
   76.4864,       562,
   76.5065,       602,
   76.5267,       598,
   76.5469,       633,
    76.567,       622,
   76.5872,       620,
   76.6074,       656,
   76.6275,       562,
   76.6477,       625,
   76.6679,       619,
    76.688,       591,
   76.7082,       647,
   76.7284,       610,
   76.7485,       602,
   76.7687,       608,
   76.7889,       613,
    76.809,       579,
   76.8292,       619,
   76.8494,       587,
   76.8696,       623,
   76.8897,       591,
   76.9099,       542,
   76.9301,       644,
   76.9502,       636,
   76.9704,       614,
   76.9906,       566,
   77.0107,       598,
   77.0309,       564,
   77.0511,       571,
   77.0712,       623,
   77.0914,       608,
   77.1116,       596,
   77.1317,       601,
   77.1519,       595,
   77.1721,       576,
   77.1923,       616,
   77.2124,       626,
   77.2326,       615,
   77.2528,       575,
   77.2729,       567,
   77.2931,       601,
   77.3133,       648,
   77.3334,       585,
   77.3536,       600,
   77.3738,       616,
   77.3939,       607,
   77.4141,       565,
   77.4343,       550,
   77.4544,       620,
   77.4746,       615,
   77.4948,       567,
   77.5149,       577,
   77.5351,       593,
   77.5553,       616,
   77.5755,       595,
   77.5956,       609,
   77.6158,       585,
    77.636,       590,
   77.6561,       616,
   77.6763,       581,
   77.6965,       605,
   77.7166,       608,
   77.7368,       546,
    77.757,       567,
   77.7771,       575,
   77.7973,       585,
   77.8175,       592,
   77.8376,       572,
   77.8578,       558,
    77.878,       587,
   77.8981,       573,
   77.9183,       577,
   77.9385,       596,
   77.9587,       589,
   77.9788,       591,
    77.999,       586,
