;RAW4.00
[RawHeader]
Date=11/26/2025
EstimatedTotalTime=426.6
FurtherDQLReading=0
HardwareIndicator=65519
MeasuredTotalTime=4.29392
MeasurementFlag=1
NumberOfMeasuredRanges=1
NumberOfRanges=1
Time=20:27:06

[VarInfo]
Type=USER
Flags=0
Value=Lab Manager

[VarInfo]
Type=SAMPLEID
Flags=0
Value=Commander Sample ID

[VarInfo]
Type=COMMENT
Flags=0
Value=

[VarInfo]
Type=UTF
Flags=0
Value=

[VarInfo]
Type=CREATOR
Flags=0
Value=V5Converter

[VarInfo]
Type=CREATOR_VERSION
Flags=0
Value=4.4.16.0

[HardwareConfiguration]
AbsorptionFactor=9999
ActivateAbsorber=0
Alpha1=1.5406
Alpha2=1.54439
AlphaAverage=1.54184
AlphaRatio=0.5
Analyzer=0
Anode=Cu
AntiScatteringSlit=9999
BeamOpticsFlags=0
Beta=1.39222
BetaRelativeIntensity=0
DeactivateAbsorber=0
DetectorSlit=9999
DivergenceSlit=9999
GoniometerControl=0
GoniometerDiameter=282
GoniometerModel=256
GoniometerStage=7
Monochromator=0
NearSampleSlit=9999
PrimarySollerSlit=9999
SampleChanger=0
SecondSollerSlit=9999
SynchronousAxis=0
ThinFilmAttachment=9999
WaveUnit=A

[RangeHeader]
ActuallyUsedLambda=1.54184
AdditionalDetectorMask=257
DataRecordLength=4
DelayTime=0
DisplayPlaneNumber=0
EstimatedScanTime=427
ExtraParametersMask=0
GeneratorCurrent=10
GeneratorVoltage=30
Increment=0.0201685
Increment3=0
NumberOfCompletedData=1885
NumberOfCounts=1
NumberOfDetectors=0
NumberOfDrives=3
NumberOfEncoderDrives=0
NumberOfMeasuredData=1885
NumberOfVaryingParameters=0
RangeStartTime=0
RotationSpeed=0
ScanMode=1
ScanType=Locked Coupled
SimulatedMeasConditions=0
SlitChangerIn=0
SmootingWidth=0
Start=40.0015
Steps=1885
SynchronousRotation=0
Time=33

[VarInfo]
Type=PSD_DISCRIM
Flags=0
Value=0.11;0.5

[VarInfo]
Type=OPTICS_V5
Flags=0
Value=H4sIAAAAAAAEAO1d63KjOhJ+Fda/zqmtBIPtXKaITzm2J+OaOHbFTnKmtrZcBORYZzC4AOey//d99hl2X2x1QViIS8C3JBN+TCaodWm6+2vUUkfS/nieW9IjcD3o2GcV5bBakYBtOCa0H84qS396oBxV/mhqF44NnTnwgdt25gvHBrbf0X1dQq1t78uzB88qM99ffJHlp6enw6faoeM+yGq1qsh/9i9HxgzM9QNoe75uG6AStjJfb1WRbqEH7y1wpc/BWWXFR0joAM9w4cInL/Bj4UHLsSW+3oXrLBc9NBZ6t3Pgojcb3P8FDH+o+7OzitwBj9AAMt+CrxUfl1Lblu55QRehTORzoM8XqLDt2L4ObeBy/coBc6yHluEvdYtxoR6o1ePT02O5h8TkLue4tzhrTW2EZGjqqBswQr3oFvyXjl+9OdUtD2hyGln7c259hcAyrwHqHhq4EDFpA/KbJ8lNjfKD1ToCFipvdm00JDA1OUbR6Btwou9Ab2HpL824AjQ5tXK8m+bF4OrHhPzodEft64TGrBVWDOsoPhpP1bBWhrxWvISy1r0hIUP+4r8skMLHrm78xG8sGODQhXPdfSHkZBMMakgD9GxISBvSeHkPOIFIQeOidilHx44baRI9r5mSRmyEDSxUYBJZ3blu/xy4JnCvAfYzAL0wsdX3b8s5NVnMwIfj6+8T9KPV/l7IxHm5Jhp5z0OvBh9BE+kGCS98DAk920dCZMIVSikeHA9SJulgmhwp1bAq2ZMXfZT4B2LSAxc+QFu3ogSlwl6OWi7Ssb/0moPwnSLFGmsYPPedJdIj0qJQrgWE0MJ5JCOdEXICmjFtjmnJUA7J0tRxpRHQLUBtYA3AytxYcejGiMm4JZa46kmmLG0LrhEWBa3xcus++8A2MZDfDYZpCWdMkQKtj5nwHfcltGVFk+OFGseMJxH2qHoYWND7cnJosmJN5ku1uCnh1+H65qyTKx3Y545jAR1NEG5s6BPpdiDSG56bXcI59IlYwiKvWdVk7knrgKm+tPxb3VoCboigVyQ96CPXTshnFewlKri/oQta5l9LD8GnYEuZYx67mbHTJoqe6ZblPK0cjVCOarZnwPgJzFUVVqC1ESPOHKsWvx33pNH5Zl7erhEyxkg2xVq1lr7TdoHug6HrLIDrvzAWEyiR9/eIRfdMhLKr5fweuE21rslCEdaQRS08UPF//xMyUSUc9B0TNG8Quqbos4xMnTwz90Y+PzEHluy7tuWt5HgP/ND5vNXOHBXjLvaN2aNbYuh5A79Evm3IJvErCL6JJ23LP418rD3OPSHRTOHDEjnla/gw85sIdabECnU0BoKwUKWYS+vrz5fAfvBnTbXRwKJhj2nOjrJISkNktZevObqMVm/q5DL4SnFwGS02cm5pFninPwKqkpa1mOmKYIUieVuWOJh2nCVqyWzxf//ehzWm2Nxw9uJBQ7dIeQJnTA/KYaNePXrNFtfo7ca2MPfItOjcf/WMZelYS+paugfVBtErK9H60Ibz5bx5oBwenx4fndaUWv3kSK0pjePu32vVE4S4oAZGIvklvWZQ4W0Rs4b0UpC0Rk/7QJiajTD10yOsXjvdJsRYdyXGNhLfFkDGuto1yh6Bqz+IoV6M/ulxppzUt4kz1l2Js43EtwWcsa52jLNz4OupIMPET46w2qmqqttD2Kq7EmEbiW9jhK262jHCrvGaRirECHVXGHuvCFutth02NsJWrKMSVWsKbh08xTrZCZK+OsbSG7gQ2D5ZHRSgJJK3tspG1g4H057tH9XfH6CibEVXr/OjKbkXhfRCBYDfqOeDOWLs0nmABl3VvJn0rm5bl73OpP2tN9TkFYkJfAye/WbPftQtiMQzg4uVjCJaIvW07+CFjI1lEf6uyTEWsnm67F2lsnIJbSARW0kbWtlk6OEgY+yhA20/e3B1k8GZLoaD0auqCHeKD6S58wgk35HmwJjpNrYKCTmTxd/SeKxl8/ienF2WXefzdFk9bOTm6N5Lz546UqiqhAVciZbr3FOQY3BWIVUkVBrdJr+ZtC6H31rRcrGRhEeyyEjkXXKxo0bYURPZUVPYUbPYUQuzEywL8PxEyoQBQloib5PW7UUWe0HrokySmCrg8D78PeybkkWGzrvjVjIvuH4+FiIbUQEDqBXeyxN46LJSkY3uZbffvRqnSMV2TCAFbaXVSDlkQmfBvNq4EkHsASVZZdetcW+QpTTSOp+8YlOLgL9pYnk4ToQicvl10J4MrpMZJONJkeZyfMe6Ed+xvgA2skTfcYU8TFacvPmcsQFLZ8dr7r82tXQiP3O7dSw/voYXlO4q5vl5u6WEjcypLxqFfRNqVSHyCL4FKaFHctihVBMCjFp1f7FErbF+MBEXRsEvZLo55TW19tJ1sT+LmlpQuitTm7f2YWpolHD6sQ1TaySFsh/E0uKy2LulDZ0nkgHOmxQp25WV3aUEnW+xcHMnRJr5lluqhymm+EkWW+4491hde7Ul3ssWbV9+7YtfJA0UTQyNGXBfyVbbPA8ud74bklUw60j9YgWfilQ/I4dzraYmBmuZ2QhiKJW9qxqLdLI3h6IxR/YytzAXT1vD42MIIXVJnC4nR8cylyaJ7OZRhxZeJcCPHu2eWH2ZQFkmUJYJlGUCZZlA+fE2xcsEyvezJV4mUP6aCCsTKN8TxsoEyl8VZ2UC5XvCWZlA+ashrEygfE8IKxMoywTKMoGyTKAsEyjLBMoygbJMoCwTKMsEyjKBskygLBMoywTKMoGyTKAsEyjLBMoygbJMoHzr+KNMoCwTKD9tAiXLkUS/iumT7KzT+Cmg4tm7GScqd+cL/4UkG4arGcVOT+72h4PRhP4scnoyGTg0xcTzk2U+BzLzcGMl7XBjde+HGw8WbefceR5MR45lATfhiGNKyDjkmKsg/WbotmTQQ8ElNJZEifQE7N/XgX9k+LhXSSBnuYaE6hunwkb7FPSZfOxxRGTIPPKL8PePe2KymphYK0bAR+scevtxXAin6Q2diJrmRGpv50S+wmdgEkNlcw/RmVjQz3IliCz1U2CAaRv4kdXICV5EJGb6ELHy5h6E61FQZYr/YA2o98gntQ/sOmq5XMfxeudlE7OmVzSsTJpYMhZe0hcRy1SR/jGf/zPDjH/DR/7fA2QfErQ9hAVgol98R9I5hWWaMq5mhBds4KeJUp0oaQYcIb5mwIVtN52ZmPP5qH/5US30lx930PRnYm4HLtvZktP8/WxBxzgL44DNsuvjPeVdZqh+7nWGuODWWWeI97KTtI5vABumgB1a+LnBszXslNBZz+i3gpzt3wSirjOzGenzhQXuZgBYY/QC/KUgIkkjH65UJ0ChmfamMj+F+lCxGJtFbxiJ1dIisfpGkRjhMR6HvT9h3thLD5hkeHHgLInKwm1g17oJl16CldWVYB+fXrg3mE494KdZfesZevz3Iay2B1ceYybnbh1ywVU1LSlVPTypn6qNRkNN8LvHjcOTRv24dqQqvK8VhNAM7mETbitc+w7DEUCRgJl9i2FYh7v9roNCXwNnMmzhLkORh4SYKLFGsfsMwz42ifVFRj70nYaF9FrM/4zwzYaj4jcbRuW787sNw+F2cbvhyRss3uHlOks3wMyxzMQtgMsX+xm8pBxzcfnj6s/ujy654bCjSsOZ7olX4OYEsRyOEwezQMpa3mDWKOO8X3k4Wj2jProvYAvX6KYzLmrzl7v28CTPUlxNiU9Yi8wL0ecUu0XdWrmWfniNJk2pxn6HJHazGl4xZ9PpjyfkXwFHw4ba6R6gstmscZebgP09bgIKCIswkLYN2N/zNmAmj6JSs3YC+59rJ1Cp53Ii1c+wFVhGSkUjpbRAqXF4dHrSUJRqPWmBqqEcHldP68dqfQeB0sontAHGieA9hcKI4+SmzLSadMAw70kjnLfkkW8dVkPLMIDnOS4E3hoRE+Mi7j2jlLwRUvyl1/ekrIcPHRqtqcpiLudicNWekB9FHA7lZ+eh0Ri4qHQnkdHp3mdFwxkkShPAfO0EGXBRYgTUqKlErdE1Wb0CGJXZGHSdNqGDKCsJ1TJnP6vqMuJUZpxuDuAUxgVFpsREEgUYMFu+rxszPNBZ5WDPRwluc5pzmitr4SQ+y+l5TBQhKMMCjfMcZLfIWj48ALPjYkzSv8ZE3eHvWs9sIu2S3oNHTCEVRwtgwGnwt6KsUpyC4BLvvcgEK46DYs5u+K03mpAfRZxdFKHbnGBVi0yvQisOP5lEYfRDEPwf22IqXU7pckqXI7qcECvsd+8VLsZPznhGTjB6jZVIzZz8ZA+dc9yig6ZEJvFifFQxXo8YAd9H0PIkfi6GHAXNPKxILbzB7vVR6AbplI5NtLGOuVT/5i2e1Rn4EFu+VFtBkewhB6uqmiyUa3yqI/WAkWUTj/6JxSqYYK6D6Pv/u9RXv2COAAA=

[PSD]
ActualTwoTheta=9999
FirstUsedChannel=0
FixedPSD=0
PSDOpening=4.99171
PSDType=5

[Drive]
DriveFlags=1
DriveName=2Theta
DriveNumber=2
DriveOffset=0
OffsetIndex=0
OscillationAmplitude=0
OscillationSpeed=0
StartPosition=40.0015

[Drive]
DriveFlags=1
DriveName=Theta
DriveNumber=1
DriveOffset=0
OffsetIndex=0
OscillationAmplitude=0
OscillationSpeed=0
StartPosition=20.0007

[Drive]
DriveFlags=1
DriveName=Phi
DriveNumber=3
DriveOffset=0
OffsetIndex=0
OscillationAmplitude=0
OscillationSpeed=0
StartPosition=0

[Data]
     Angle,       PSD,
   40.0015,       628,
   40.0217,       612,
   40.0418,       607,
    40.062,       708,
   40.0822,       696,
   40.1023,       634,
   40.1225,       701,
   40.1427,       621,
   40.1628,       642,
    40.183,       611,
   40.2032,       677,
   40.2233,       621,
   40.2435,       672,
   40.2637,       627,
   40.2838,       638,
    40.304,       688,
   40.3242,       623,
   40.3444,       688,
   40.3645,       658,
   40.3847,       654,
   40.4049,       629,
    40.425,       651,
   40.4452,       642,
   40.4654,       649,
   40.4855,       666,
   40.5057,       612,
   40.5259,       646,
    40.546,       654,
   40.5662,       633,
   40.5864,       627,
   40.6065,       627,
   40.6267,       639,
   40.6469,       706,
   40.6671,       686,
   40.6872,       682,
   40.7074,       619,
   40.7276,       646,
   40.7477,       629,
   40.7679,       595,
   40.7881,       651,
   40.8082,       665,
   40.8284,       658,
   40.8486,       634,
   40.8687,       654,
   40.8889,       619,
   40.9091,       591,
   40.9292,       662,
   40.9494,       640,
   40.9696,       674,
   40.9897,       649,
   41.0099,       622,
   41.0301,       632,
   41.0503,       619,
   41.0704,       610,
   41.0906,       658,
   41.1108,       667,
   41.1309,       630,
   41.1511,       666,
   41.1713,       688,
   41.1914,       661,
   41.2116,       620,
   41.2318,       648,
   41.2519,       673,
   41.2721,       659,
   41.2923,       627,
   41.3124,       641,
   41.3326,       630,
   41.3528,       674,
   41.3729,       644,
   41.3931,       621,
   41.4133,       666,
   41.4335,       660,
   41.4536,       613,
   41.4738,       658,
    41.494,       620,
   41.5141,       646,
   41.5343,       643,
   41.5545,       722,
   41.5746,       651,
   41.5948,       636,
    41.615,       661,
   41.6351,       700,
   41.6553,       610,
   41.6755,       673,
   41.6956,       660,
   41.7158,       656,
    41.736,       637,
   41.7562,       617,
   41.7763,       657,
   41.7965,       617,
   41.8167,       685,
   41.8368,       643,
    41.857,       626,
   41.8772,       654,
   41.8973,       675,
   41.9175,       718,
   41.9377,       754,
   41.9578,       768,
    41.978,       779,
   41.9982,       753,
   42.0183,       841,
   42.0385,       768,
   42.0587,       749,
   42.0788,       834,
    42.099,       737,
   42.1192,       762,
   42.1394,       833,
   42.1595,       726,
   42.1797,       800,
   42.1999,       760,
     42.22,       767,
   42.2402,       758,
   42.2604,       785,
   42.2805,       737,
   42.3007,       733,
   42.3209,       771,
    42.341,       769,
   42.3612,       765,
   42.3814,       726,
   42.4015,       808,
   42.4217,       789,
   42.4419,       771,
    42.462,       757,
   42.4822,       806,
   42.5024,       803,
   42.5226,       822,
   42.5427,       789,
   42.5629,       768,
   42.5831,       756,
   42.6032,       791,
   42.6234,       836,
   42.6436,       827,
   42.6637,       763,
   42.6839,       793,
   42.7041,       792,
   42.7242,       808,
   42.7444,       810,
   42.7646,       851,
   42.7847,       817,
   42.8049,       819,
   42.8251,       807,
   42.8453,       783,
   42.8654,       825,
   42.8856,       861,
   42.9058,       851,
   42.9259,       872,
   42.9461,       851,
   42.9663,       921,
   42.9864,       988,
   43.0066,      1019,
   43.0268,      1071,
   43.0469,      1177,
   43.0671,      1192,
   43.0873,      1263,
   43.1074,      1222,
   43.1276,      1295,
   43.1478,      1290,
   43.1679,      1344,
   43.1881,      1461,
   43.2083,      1595,
   43.2285,      1740,
   43.2486,      1923,
   43.2688,      2235,
    43.289,      2246,
   43.3091,      2355,
   43.3293,      2703,
   43.3495,      3378,
   43.3696,      4539,
   43.3898,      7686,
     43.41,     16395,
   43.4301,     36543,
   43.4503,     58899,
   43.4705,     55107,
   43.4906,     31148,
   43.5108,     16323,
    43.531,     16589,
   43.5511,     25874,
   43.5713,     32300,
   43.5915,     24107,
   43.6117,     12105,
   43.6318,      5868,
    43.652,      3693,
   43.6722,      2780,
   43.6923,      2363,
   43.7125,      2044,
   43.7327,      1912,
   43.7528,      1823,
    43.773,      1605,
   43.7932,      1449,
   43.8133,      1338,
   43.8335,      1243,
   43.8537,      1186,
   43.8738,      1125,
    43.894,      1098,
   43.9142,      1032,
   43.9344,       914,
   43.9545,       970,
   43.9747,       923,
   43.9949,       890,
    44.015,       948,
   44.0352,       867,
   44.0554,       926,
   44.0755,       919,
   44.0957,       811,
   44.1159,       867,
    44.136,       820,
   44.1562,       855,
   44.1764,       868,
   44.1965,       798,
   44.2167,       794,
   44.2369,       816,
    44.257,       805,
   44.2772,       810,
   44.2974,       791,
   44.3176,       848,
   44.3377,       787,
   44.3579,       794,
   44.3781,       792,
   44.3982,       785,
   44.4184,       777,
   44.4386,       782,
   44.4587,       809,
   44.4789,       747,
   44.4991,       789,
   44.5192,       783,
   44.5394,       745,
   44.5596,       761,
   44.5797,       772,
   44.5999,       770,
   44.6201,       747,
   44.6402,       734,
   44.6604,       756,
   44.6806,       792,
   44.7008,       722,
   44.7209,       738,
   44.7411,       730,
   44.7613,       773,
   44.7814,       795,
   44.8016,       752,
   44.8218,       741,
   44.8419,       710,
   44.8621,       762,
   44.8823,       786,
   44.9024,       727,
   44.9226,       706,
   44.9428,       764,
   44.9629,       729,
   44.9831,       704,
   45.0033,       765,
   45.0235,       761,
   45.0436,       725,
   45.0638,       689,
    45.084,       752,
   45.1041,       708,
   45.1243,       694,
   45.1445,       709,
   45.1646,       733,
   45.1848,       762,
    45.205,       710,
   45.2251,       705,
   45.2453,       697,
   45.2655,       711,
   45.2856,       734,
   45.3058,       689,
    45.326,       753,
   45.3461,       723,
   45.3663,       796,
   45.3865,       734,
   45.4067,       708,
   45.4268,       746,
    45.447,       820,
   45.4672,       730,
   45.4873,       754,
   45.5075,       689,
   45.5277,       790,
   45.5478,       740,
    45.568,       704,
   45.5882,       712,
   45.6083,       725,
   45.6285,       721,
   45.6487,       738,
   45.6688,       727,
    45.689,       738,
   45.7092,       714,
   45.7294,       690,
   45.7495,       705,
   45.7697,       700,
   45.7899,       670,
     45.81,       683,
   45.8302,       697,
   45.8504,       673,
   45.8705,       725,
   45.8907,       725,
   45.9109,       680,
    45.931,       700,
   45.9512,       747,
   45.9714,       683,
   45.9915,       727,
   46.0117,       683,
   46.0319,       735,
    46.052,       715,
   46.0722,       716,
   46.0924,       729,
   46.1126,       667,
   46.1327,       631,
   46.1529,       665,
   46.1731,       708,
   46.1932,       706,
   46.2134,       715,
   46.2336,       702,
   46.2537,       698,
   46.2739,       702,
   46.2941,       692,
   46.3142,       664,
   46.3344,       746,
   46.3546,       749,
   46.3747,       727,
   46.3949,       702,
   46.4151,       741,
   46.4352,       678,
   46.4554,       683,
   46.4756,       709,
   46.4958,       711,
   46.5159,       665,
   46.5361,       708,
   46.5563,       696,
   46.5764,       678,
   46.5966,       719,
   46.6168,       711,
   46.6369,       644,
   46.6571,       711,
   46.6773,       659,
   46.6974,       682,
   46.7176,       674,
   46.7378,       685,
   46.7579,       698,
   46.7781,       641,
   46.7983,       703,
   46.8185,       719,
   46.8386,       715,
   46.8588,       704,
    46.879,       672,
   46.8991,       693,
   46.9193,       687,
   46.9395,       686,
   46.9596,       704,
   46.9798,       657,
        47,       649,
   47.0201,       675,
   47.0403,       703,
   47.0605,       659,
   47.0806,       713,
   47.1008,       674,
    47.121,       725,
   47.1411,       684,
   47.1613,       666,
   47.1815,       702,
   47.2017,       605,
   47.2218,       641,
    47.242,       699,
   47.2622,       752,
   47.2823,       687,
   47.3025,       662,
   47.3227,       638,
   47.3428,       704,
    47.363,       675,
   47.3832,       638,
   47.4033,       655,
   47.4235,       625,
   47.4437,       671,
   47.4638,       703,
    47.484,       716,
   47.5042,       623,
   47.5243,       649,
   47.5445,       659,
   47.5647,       650,
   47.5849,       744,
    47.605,       670,
   47.6252,       636,
   47.6454,       682,
   47.6655,       664,
   47.6857,       671,
   47.7059,       693,
    47.726,       682,
   47.7462,       685,
   47.7664,       662,
   47.7865,       677,
   47.8067,       662,
   47.8269,       688,
    47.847,       700,
   47.8672,       668,
   47.8874,       677,
   47.9076,       689,
   47.9277,       693,
   47.9479,       687,
   47.9681,       645,
   47.9882,       662,
   48.0084,       654,
   48.0286,       649,
   48.0487,       662,
   48.0689,       690,
   48.0891,       693,
   48.1092,       684,
   48.1294,       680,
   48.1496,       654,
   48.1697,       679,
   48.1899,       661,
   48.2101,       660,
   48.2302,       697,
   48.2504,       709,
   48.2706,       692,
   48.2908,       673,
   48.3109,       667,
   48.3311,       647,
   48.3513,       681,
   48.3714,       712,
   48.3916,       677,
   48.4118,       683,
   48.4319,       680,
   48.4521,       681,
   48.4723,       679,
   48.4924,       688,
   48.5126,       685,
   48.5328,       697,
   48.5529,       663,
   48.5731,       678,
   48.5933,       678,
   48.6134,       651,
   48.6336,       688,
   48.6538,       706,
    48.674,       667,
   48.6941,       679,
   48.7143,       647,
   48.7345,       710,
   48.7546,       656,
   48.7748,       670,
    48.795,       691,
   48.8151,       691,
   48.8353,       718,
   48.8555,       709,
   48.8756,       724,
   48.8958,       716,
    48.916,       703,
   48.9361,       676,
   48.9563,       707,
   48.9765,       665,
   48.9967,       658,
   49.0168,       686,
    49.037,       670,
   49.0572,       707,
   49.0773,       730,
   49.0975,       685,
   49.1177,       691,
   49.1378,       686,
    49.158,       723,
   49.1782,       724,
   49.1983,       700,
   49.2185,       676,
   49.2387,       739,
   49.2588,       715,
    49.279,       711,
   49.2992,       692,
   49.3193,       662,
   49.3395,       672,
   49.3597,       690,
   49.3799,       733,
      49.4,       712,
   49.4202,       723,
   49.4404,       684,
   49.4605,       684,
   49.4807,       666,
   49.5009,       721,
    49.521,       687,
   49.5412,       699,
   49.5614,       681,
   49.5815,       682,
   49.6017,       694,
   49.6219,       679,
    49.642,       654,
   49.6622,       680,
   49.6824,       756,
   49.7025,       691,
   49.7227,       660,
   49.7429,       676,
   49.7631,       733,
   49.7832,       695,
   49.8034,       715,
   49.8236,       708,
   49.8437,       716,
   49.8639,       703,
   49.8841,       735,
   49.9042,       734,
   49.9244,       710,
   49.9446,       738,
   49.9647,       703,
   49.9849,       673,
   50.0051,       725,
   50.0252,       732,
   50.0454,       722,
   50.0656,       733,
   50.0858,       740,
   50.1059,       774,
   50.1261,       741,
   50.1463,       776,
   50.1664,       807,
   50.1866,       746,
   50.2068,       784,
   50.2269,       873,
   50.2471,       872,
   50.2673,       849,
   50.2874,       927,
   50.3076,       988,
   50.3278,       951,
   50.3479,      1047,
   50.3681,      1040,
   50.3883,      1235,
   50.4084,      1224,
   50.4286,      1268,
   50.4488,      1410,
    50.469,      1639,
   50.4891,      2040,
   50.5093,      2881,
   50.5295,      4699,
   50.5496,      7428,
   50.5698,     10778,
     50.59,     11952,
   50.6101,      9794,
   50.6303,      6667,
   50.6505,      4831,
   50.6706,      4759,
   50.6908,      5373,
    50.711,      6427,
   50.7311,      6391,
   50.7513,      4835,
   50.7715,      3229,
   50.7917,      2180,
   50.8118,      1678,
    50.832,      1428,
   50.8522,      1262,
   50.8723,      1163,
   50.8925,      1013,
   50.9127,       993,
   50.9328,       932,
    50.953,       887,
   50.9732,       841,
   50.9933,       843,
   51.0135,       824,
   51.0337,       778,
   51.0538,       800,
    51.074,       822,
   51.0942,       783,
   51.1143,       743,
   51.1345,       743,
   51.1547,       714,
   51.1749,       730,
    51.195,       677,
   51.2152,       736,
   51.2354,       708,
   51.2555,       720,
   51.2757,       722,
   51.2959,       745,
    51.316,       689,
   51.3362,       685,
   51.3564,       680,
   51.3765,       709,
   51.3967,       736,
   51.4169,       722,
    51.437,       710,
   51.4572,       706,
   51.4774,       691,
   51.4975,       693,
   51.5177,       711,
   51.5379,       680,
   51.5581,       685,
   51.5782,       684,
   51.5984,       679,
   51.6186,       678,
   51.6387,       677,
   51.6589,       697,
   51.6791,       717,
   51.6992,       700,
   51.7194,       676,
   51.7396,       718,
   51.7597,       684,
   51.7799,       682,
   51.8001,       698,
   51.8202,       668,
   51.8404,       703,
   51.8606,       656,
   51.8808,       653,
   51.9009,       649,
   51.9211,       710,
   51.9413,       699,
   51.9614,       649,
   51.9816,       675,
   52.0018,       676,
   52.0219,       676,
   52.0421,       598,
   52.0623,       668,
   52.0824,       680,
   52.1026,       683,
   52.1228,       683,
   52.1429,       611,
   52.1631,       647,
   52.1833,       635,
   52.2034,       641,
   52.2236,       673,
   52.2438,       673,
    52.264,       662,
   52.2841,       648,
   52.3043,       689,
   52.3245,       686,
   52.3446,       679,
   52.3648,       660,
    52.385,       646,
   52.4051,       648,
   52.4253,       683,
   52.4455,       674,
   52.4656,       709,
   52.4858,       675,
    52.506,       629,
   52.5261,       708,
   52.5463,       709,
   52.5665,       653,
   52.5866,       634,
   52.6068,       631,
    52.627,       624,
   52.6472,       656,
   52.6673,       668,
   52.6875,       689,
   52.7077,       638,
   52.7278,       618,
    52.748,       678,
   52.7682,       650,
   52.7883,       627,
   52.8085,       654,
   52.8287,       653,
   52.8488,       675,
    52.869,       654,
   52.8892,       668,
   52.9093,       662,
   52.9295,       611,
   52.9497,       646,
   52.9699,       696,
     52.99,       627,
   53.0102,       586,
   53.0304,       636,
   53.0505,       646,
   53.0707,       674,
   53.0909,       661,
    53.111,       671,
   53.1312,       661,
   53.1514,       651,
   53.1715,       658,
   53.1917,       652,
   53.2119,       621,
    53.232,       681,
   53.2522,       636,
   53.2724,       699,
   53.2925,       651,
   53.3127,       618,
   53.3329,       643,
   53.3531,       659,
   53.3732,       642,
   53.3934,       619,
   53.4136,       654,
   53.4337,       625,
   53.4539,       674,
   53.4741,       646,
   53.4942,       631,
   53.5144,       629,
   53.5346,       656,
   53.5547,       675,
   53.5749,       674,
   53.5951,       615,
   53.6152,       658,
   53.6354,       654,
   53.6556,       679,
   53.6757,       683,
   53.6959,       704,
   53.7161,       659,
   53.7363,       641,
   53.7564,       603,
   53.7766,       688,
   53.7968,       621,
   53.8169,       613,
   53.8371,       640,
   53.8573,       646,
   53.8774,       622,
   53.8976,       671,
   53.9178,       661,
   53.9379,       647,
   53.9581,       637,
   53.9783,       648,
   53.9984,       661,
   54.0186,       663,
   54.0388,       618,
    54.059,       634,
   54.0791,       660,
   54.0993,       670,
   54.1195,       659,
   54.1396,       633,
   54.1598,       634,
     54.18,       631,
   54.2001,       673,
   54.2203,       651,
   54.2405,       613,
   54.2606,       624,
   54.2808,       660,
    54.301,       641,
   54.3211,       621,
   54.3413,       643,
   54.3615,       603,
   54.3816,       673,
   54.4018,       601,
    54.422,       632,
   54.4422,       690,
   54.4623,       608,
   54.4825,       646,
   54.5027,       673,
   54.5228,       631,
    54.543,       655,
   54.5632,       674,
   54.5833,       679,
   54.6035,       650,
   54.6237,       621,
   54.6438,       610,
    54.664,       640,
   54.6842,       663,
   54.7043,       667,
   54.7245,       648,
   54.7447,       708,
   54.7648,       626,
    54.785,       696,
   54.8052,       621,
   54.8254,       620,
   54.8455,       671,
   54.8657,       630,
   54.8859,       602,
    54.906,       681,
   54.9262,       603,
   54.9464,       612,
   54.9665,       634,
   54.9867,       646,
   55.0069,       650,
    55.027,       660,
   55.0472,       650,
   55.0674,       663,
   55.0875,       616,
   55.1077,       612,
   55.1279,       629,
   55.1481,       633,
   55.1682,       615,
   55.1884,       614,
   55.2086,       649,
   55.2287,       637,
   55.2489,       674,
   55.2691,       649,
   55.2892,       627,
   55.3094,       642,
   55.3296,       714,
   55.3497,       642,
   55.3699,       646,
   55.3901,       663,
   55.4102,       699,
   55.4304,       621,
   55.4506,       708,
   55.4707,       640,
   55.4909,       653,
   55.5111,       634,
   55.5313,       653,
   55.5514,       639,
   55.5716,       660,
   55.5918,       613,
   55.6119,       638,
   55.6321,       635,
   55.6523,       622,
   55.6724,       632,
   55.6926,       665,
   55.7128,       618,
   55.7329,       635,
   55.7531,       611,
   55.7733,       632,
   55.7934,       643,
   55.8136,       611,
   55.8338,       652,
    55.854,       631,
   55.8741,       667,
   55.8943,       655,
   55.9145,       655,
   55.9346,       677,
   55.9548,       621,
    55.975,       665,
   55.9951,       652,
   56.0153,       655,
   56.0355,       663,
   56.0556,       658,
   56.0758,       653,
    56.096,       616,
   56.1161,       637,
   56.1363,       632,
   56.1565,       597,
   56.1766,       633,
   56.1968,       615,
    56.217,       579,
   56.2372,       641,
   56.2573,       597,
   56.2775,       575,
   56.2977,       572,
   56.3178,       600,
    56.338,       674,
   56.3582,       620,
   56.3783,       647,
   56.3985,       607,
   56.4187,       627,
   56.4388,       627,
    56.459,       657,
   56.4792,       609,
   56.4993,       615,
   56.5195,       614,
   56.5397,       651,
   56.5598,       681,
     56.58,       628,
   56.6002,       628,
   56.6204,       657,
   56.6405,       645,
   56.6607,       672,
   56.6809,       611,
    56.701,       635,
   56.7212,       578,
   56.7414,       645,
   56.7615,       625,
   56.7817,       653,
   56.8019,       625,
    56.822,       680,
   56.8422,       647,
   56.8624,       603,
   56.8825,       632,
   56.9027,       669,
   56.9229,       650,
   56.9431,       605,
   56.9632,       650,
   56.9834,       625,
   57.0036,       621,
   57.0237,       605,
   57.0439,       645,
   57.0641,       664,
   57.0842,       658,
   57.1044,       628,
   57.1246,       620,
   57.1447,       640,
   57.1649,       624,
   57.1851,       591,
   57.2052,       609,
   57.2254,       590,
   57.2456,       617,
   57.2657,       660,
   57.2859,       606,
   57.3061,       648,
   57.3263,       656,
   57.3464,       627,
   57.3666,       635,
   57.3868,       579,
   57.4069,       552,
   57.4271,       592,
   57.4473,       647,
   57.4674,       593,
   57.4876,       646,
   57.5078,       666,
   57.5279,       613,
   57.5481,       641,
   57.5683,       650,
   57.5884,       606,
   57.6086,       637,
   57.6288,       626,
   57.6489,       618,
   57.6691,       672,
   57.6893,       636,
   57.7095,       680,
   57.7296,       582,
   57.7498,       642,
     57.77,       599,
   57.7901,       620,
   57.8103,       651,
   57.8305,       624,
   57.8506,       632,
   57.8708,       659,
    57.891,       657,
   57.9111,       612,
   57.9313,       620,
   57.9515,       613,
   57.9716,       633,
   57.9918,       630,
    58.012,       629,
   58.0322,       628,
   58.0523,       637,
   58.0725,       652,
   58.0927,       606,
   58.1128,       610,
    58.133,       620,
   58.1532,       652,
   58.1733,       631,
   58.1935,       614,
   58.2137,       632,
   58.2338,       662,
    58.254,       645,
   58.2742,       611,
   58.2943,       654,
   58.3145,       626,
   58.3347,       623,
   58.3548,       566,
    58.375,       629,
   58.3952,       636,
   58.4154,       680,
   58.4355,       593,
   58.4557,       651,
   58.4759,       620,
    58.496,       641,
   58.5162,       575,
   58.5364,       605,
   58.5565,       667,
   58.5767,       641,
   58.5969,       638,
    58.617,       640,
   58.6372,       598,
   58.6574,       618,
   58.6775,       610,
   58.6977,       619,
   58.7179,       600,
    58.738,       624,
   58.7582,       594,
   58.7784,       601,
   58.7986,       633,
   58.8187,       629,
   58.8389,       629,
   58.8591,       637,
   58.8792,       618,
   58.8994,       619,
   58.9196,       597,
   58.9397,       579,
   58.9599,       621,
   58.9801,       595,
   59.0002,       618,
   59.0204,       599,
   59.0406,       608,
   59.0607,       632,
   59.0809,       655,
   59.1011,       574,
   59.1213,       618,
   59.1414,       632,
   59.1616,       627,
   59.1818,       617,
   59.2019,       629,
   59.2221,       639,
   59.2423,       620,
   59.2624,       612,
   59.2826,       624,
   59.3028,       635,
   59.3229,       627,
   59.3431,       636,
   59.3633,       598,
   59.3834,       658,
   59.4036,       621,
   59.4238,       609,
   59.4439,       669,
   59.4641,       586,
   59.4843,       652,
   59.5045,       592,
   59.5246,       630,
   59.5448,       642,
    59.565,       630,
   59.5851,       640,
   59.6053,       610,
   59.6255,       584,
   59.6456,       685,
   59.6658,       623,
    59.686,       639,
   59.7061,       654,
   59.7263,       620,
   59.7465,       669,
   59.7666,       625,
   59.7868,       636,
    59.807,       606,
   59.8271,       619,
   59.8473,       586,
   59.8675,       622,
   59.8877,       660,
   59.9078,       650,
    59.928,       624,
   59.9482,       580,
   59.9683,       666,
   59.9885,       619,
   60.0087,       635,
   60.0288,       635,
    60.049,       667,
   60.0692,       631,
   60.0893,       636,
   60.1095,       652,
   60.1297,       621,
   60.1498,       644,
     60.17,       617,
   60.1902,       631,
   60.2104,       637,
   60.2305,       599,
   60.2507,       601,
   60.2709,       627,
    60.291,       567,
   60.3112,       641,
   60.3314,       639,
   60.3515,       629,
   60.3717,       639,
   60.3919,       684,
    60.412,       623,
   60.4322,       658,
   60.4524,       603,
   60.4725,       624,
   60.4927,       600,
   60.5129,       618,
    60.533,       586,
   60.5532,       608,
   60.5734,       640,
   60.5936,       611,
   60.6137,       581,
   60.6339,       612,
   60.6541,       618,
   60.6742,       641,
   60.6944,       692,
   60.7146,       598,
   60.7347,       581,
   60.7549,       573,
   60.7751,       615,
   60.7952,       644,
   60.8154,       581,
   60.8356,       635,
   60.8557,       631,
   60.8759,       599,
   60.8961,       596,
   60.9163,       612,
   60.9364,       601,
   60.9566,       633,
   60.9768,       660,
   60.9969,       626,
   61.0171,       627,
   61.0373,       558,
   61.0574,       639,
   61.0776,       599,
   61.0978,       601,
   61.1179,       618,
   61.1381,       613,
   61.1583,       597,
   61.1784,       564,
   61.1986,       619,
   61.2188,       613,
   61.2389,       609,
   61.2591,       604,
   61.2793,       585,
   61.2995,       603,
   61.3196,       603,
   61.3398,       632,
     61.36,       601,
   61.3801,       598,
   61.4003,       645,
   61.4205,       668,
   61.4406,       642,
   61.4608,       596,
    61.481,       636,
   61.5011,       643,
   61.5213,       618,
   61.5415,       591,
   61.5616,       636,
   61.5818,       646,
    61.602,       638,
   61.6221,       594,
   61.6423,       623,
   61.6625,       604,
   61.6827,       671,
   61.7028,       663,
    61.723,       618,
   61.7432,       595,
   61.7633,       629,
   61.7835,       649,
   61.8037,       635,
   61.8238,       569,
    61.844,       612,
   61.8642,       550,
   61.8843,       683,
   61.9045,       622,
   61.9247,       633,
   61.9448,       612,
    61.965,       629,
   61.9852,       604,
   62.0054,       618,
   62.0255,       575,
   62.0457,       608,
   62.0659,       634,
    62.086,       592,
   62.1062,       603,
   62.1264,       587,
   62.1465,       658,
   62.1667,       615,
   62.1869,       602,
    62.207,       646,
   62.2272,       579,
   62.2474,       639,
   62.2675,       622,
   62.2877,       581,
   62.3079,       605,
    62.328,       592,
   62.3482,       584,
   62.3684,       641,
   62.3886,       563,
   62.4087,       621,
   62.4289,       636,
   62.4491,       619,
   62.4692,       580,
   62.4894,       684,
   62.5096,       596,
   62.5297,       625,
   62.5499,       622,
   62.5701,       604,
   62.5902,       616,
   62.6104,       648,
   62.6306,       622,
   62.6507,       606,
   62.6709,       651,
   62.6911,       624,
   62.7112,       587,
   62.7314,       604,
   62.7516,       654,
   62.7718,       600,
   62.7919,       614,
   62.8121,       621,
   62.8323,       600,
   62.8524,       629,
   62.8726,       600,
   62.8928,       594,
   62.9129,       602,
   62.9331,       637,
   62.9533,       616,
   62.9734,       642,
   62.9936,       650,
   63.0138,       560,
   63.0339,       614,
   63.0541,       600,
   63.0743,       640,
   63.0945,       632,
   63.1146,       605,
   63.1348,       628,
    63.155,       583,
   63.1751,       593,
   63.1953,       610,
   63.2155,       623,
   63.2356,       621,
   63.2558,       626,
    63.276,       640,
   63.2961,       614,
   63.3163,       574,
   63.3365,       597,
   63.3566,       599,
   63.3768,       610,
    63.397,       648,
   63.4171,       618,
   63.4373,       631,
   63.4575,       621,
   63.4777,       646,
   63.4978,       651,
    63.518,       608,
   63.5382,       607,
   63.5583,       595,
   63.5785,       644,
   63.5987,       606,
   63.6188,       595,
    63.639,       598,
   63.6592,       612,
   63.6793,       610,
   63.6995,       616,
   63.7197,       598,
   63.7398,       605,
     63.76,       621,
   63.7802,       600,
   63.8003,       615,
   63.8205,       615,
   63.8407,       634,
   63.8609,       591,
    63.881,       596,
   63.9012,       617,
   63.9214,       653,
   63.9415,       611,
   63.9617,       656,
   63.9819,       653,
    64.002,       620,
   64.0222,       557,
   64.0424,       639,
   64.0625,       602,
   64.0827,       604,
   64.1029,       668,
    64.123,       651,
   64.1432,       591,
   64.1634,       626,
   64.1836,       613,
   64.2037,       642,
   64.2239,       596,
   64.2441,       619,
   64.2642,       588,
   64.2844,       581,
   64.3046,       622,
   64.3247,       579,
   64.3449,       590,
   64.3651,       657,
   64.3852,       604,
   64.4054,       594,
   64.4256,       564,
   64.4457,       648,
   64.4659,       622,
   64.4861,       628,
   64.5062,       598,
   64.5264,       592,
   64.5466,       581,
   64.5668,       627,
   64.5869,       663,
   64.6071,       623,
   64.6273,       610,
   64.6474,       611,
   64.6676,       647,
   64.6878,       660,
   64.7079,       613,
   64.7281,       611,
   64.7483,       612,
   64.7684,       605,
   64.7886,       630,
   64.8088,       659,
   64.8289,       629,
   64.8491,       625,
   64.8693,       630,
   64.8894,       619,
   64.9096,       589,
   64.9298,       594,
     64.95,       669,
   64.9701,       662,
   64.9903,       595,
   65.0105,       652,
   65.0306,       608,
   65.0508,       695,
    65.071,       620,
   65.0911,       641,
   65.1113,       619,
   65.1315,       626,
   65.1516,       602,
   65.1718,       649,
    65.192,       629,
   65.2121,       614,
   65.2323,       641,
   65.2525,       628,
   65.2727,       625,
   65.2928,       589,
    65.313,       658,
   65.3332,       622,
   65.3533,       605,
   65.3735,       621,
   65.3937,       573,
   65.4138,       679,
    65.434,       610,
   65.4542,       616,
   65.4743,       559,
   65.4945,       598,
   65.5147,       611,
   65.5348,       595,
    65.555,       636,
   65.5752,       626,
   65.5953,       597,
   65.6155,       625,
   65.6357,       613,
   65.6559,       626,
    65.676,       587,
   65.6962,       612,
   65.7164,       645,
   65.7365,       621,
   65.7567,       613,
   65.7769,       661,
    65.797,       624,
   65.8172,       582,
   65.8374,       597,
   65.8575,       629,
   65.8777,       622,
   65.8979,       621,
    65.918,       597,
   65.9382,       672,
   65.9584,       616,
   65.9786,       617,
   65.9987,       570,
   66.0189,       644,
   66.0391,       626,
   66.0592,       597,
   66.0794,       596,
   66.0996,       640,
   66.1197,       616,
   66.1399,       655,
   66.1601,       609,
   66.1802,       627,
   66.2004,       697,
   66.2206,       637,
   66.2407,       588,
   66.2609,       639,
   66.2811,       627,
   66.3012,       635,
   66.3214,       581,
   66.3416,       596,
   66.3618,       645,
   66.3819,       585,
   66.4021,       644,
   66.4223,       647,
   66.4424,       630,
   66.4626,       576,
   66.4828,       611,
   66.5029,       616,
   66.5231,       632,
   66.5433,       597,
   66.5634,       623,
   66.5836,       628,
   66.6038,       604,
   66.6239,       629,
   66.6441,       589,
   66.6643,       608,
   66.6844,       637,
   66.7046,       657,
   66.7248,       650,
    66.745,       609,
   66.7651,       657,
   66.7853,       597,
   66.8055,       642,
   66.8256,       590,
   66.8458,       637,
    66.866,       633,
   66.8861,       598,
   66.9063,       619,
   66.9265,       639,
   66.9466,       606,
   66.9668,       589,
    66.987,       616,
   67.0071,       606,
   67.0273,       600,
   67.0475,       601,
   67.0677,       582,
   67.0878,       583,
    67.108,       598,
   67.1282,       651,
   67.1483,       613,
   67.1685,       611,
   67.1887,       631,
   67.2088,       588,
    67.229,       578,
   67.2492,       588,
   67.2693,       603,
   67.2895,       593,
   67.3097,       634,
   67.3298,       601,
     67.35,       571,
   67.3702,       619,
   67.3903,       639,
   67.4105,       652,
   67.4307,       609,
   67.4509,       591,
    67.471,       629,
   67.4912,       591,
   67.5114,       642,
   67.5315,       623,
   67.5517,       584,
   67.5719,       601,
    67.592,       640,
   67.6122,       580,
   67.6324,       619,
   67.6525,       599,
   67.6727,       564,
   67.6929,       605,
    67.713,       602,
   67.7332,       631,
   67.7534,       554,
   67.7735,       651,
   67.7937,       600,
   67.8139,       607,
   67.8341,       570,
   67.8542,       603,
   67.8744,       621,
   67.8946,       628,
   67.9147,       622,
   67.9349,       614,
   67.9551,       629,
   67.9752,       627,
   67.9954,       597,
   68.0156,       607,
   68.0357,       627,
   68.0559,       610,
   68.0761,       601,
   68.0962,       602,
   68.1164,       630,
   68.1366,       616,
   68.1568,       568,
   68.1769,       625,
   68.1971,       580,
   68.2173,       598,
   68.2374,       641,
   68.2576,       713,
   68.2778,       600,
   68.2979,       630,
   68.3181,       628,
   68.3383,       625,
   68.3584,       606,
   68.3786,       580,
   68.3988,       644,
   68.4189,       634,
   68.4391,       593,
   68.4593,       690,
   68.4794,       616,
   68.4996,       609,
   68.5198,       602,
     68.54,       612,
   68.5601,       611,
   68.5803,       635,
   68.6005,       616,
   68.6206,       609,
   68.6408,       598,
    68.661,       599,
   68.6811,       662,
   68.7013,       627,
   68.7215,       630,
   68.7416,       600,
   68.7618,       607,
    68.782,       610,
   68.8021,       584,
   68.8223,       577,
   68.8425,       617,
   68.8626,       626,
   68.8828,       579,
    68.903,       593,
   68.9232,       597,
   68.9433,       612,
   68.9635,       611,
   68.9837,       652,
   69.0038,       580,
    69.024,       617,
   69.0442,       591,
   69.0643,       597,
   69.0845,       611,
   69.1047,       639,
   69.1248,       568,
    69.145,       591,
   69.1652,       664,
   69.1853,       639,
   69.2055,       631,
   69.2257,       586,
   69.2459,       623,
    69.266,       596,
   69.2862,       645,
   69.3064,       634,
   69.3265,       583,
   69.3467,       641,
   69.3669,       624,
    69.387,       666,
   69.4072,       598,
   69.4274,       612,
   69.4475,       670,
   69.4677,       635,
   69.4879,       611,
    69.508,       595,
   69.5282,       602,
   69.5484,       601,
   69.5685,       612,
   69.5887,       588,
   69.6089,       590,
   69.6291,       624,
   69.6492,       609,
   69.6694,       585,
   69.6896,       605,
   69.7097,       606,
   69.7299,       611,
   69.7501,       602,
   69.7702,       657,
   69.7904,       582,
   69.8106,       567,
   69.8307,       658,
   69.8509,       599,
   69.8711,       604,
   69.8912,       594,
   69.9114,       599,
   69.9316,       642,
   69.9517,       619,
   69.9719,       610,
   69.9921,       643,
   70.0123,       593,
   70.0324,       625,
   70.0526,       622,
   70.0728,       655,
   70.0929,       569,
   70.1131,       585,
   70.1333,       643,
   70.1534,       579,
   70.1736,       605,
   70.1938,       597,
   70.2139,       620,
   70.2341,       595,
   70.2543,       599,
   70.2744,       558,
   70.2946,       626,
   70.3148,       620,
    70.335,       594,
   70.3551,       634,
   70.3753,       579,
   70.3955,       598,
   70.4156,       627,
   70.4358,       673,
    70.456,       615,
   70.4761,       609,
   70.4963,       563,
   70.5165,       601,
   70.5366,       630,
   70.5568,       592,
    70.577,       661,
   70.5971,       549,
   70.6173,       621,
   70.6375,       580,
   70.6576,       626,
   70.6778,       605,
    70.698,       615,
   70.7182,       634,
   70.7383,       626,
   70.7585,       578,
   70.7787,       610,
   70.7988,       665,
    70.819,       646,
   70.8392,       607,
   70.8593,       572,
   70.8795,       595,
   70.8997,       590,
   70.9198,       607,
     70.94,       649,
   70.9602,       611,
   70.9803,       614,
   71.0005,       588,
   71.0207,       613,
   71.0409,       648,
    71.061,       635,
   71.0812,       633,
   71.1014,       644,
   71.1215,       614,
   71.1417,       577,
   71.1619,       624,
    71.182,       649,
   71.2022,       627,
   71.2224,       622,
   71.2425,       588,
   71.2627,       627,
   71.2829,       629,
    71.303,       567,
   71.3232,       679,
   71.3434,       620,
   71.3635,       641,
   71.3837,       606,
   71.4039,       656,
   71.4241,       616,
   71.4442,       701,
   71.4644,       642,
   71.4846,       631,
   71.5047,       674,
   71.5249,       646,
   71.5451,       623,
   71.5652,       638,
   71.5854,       662,
   71.6056,       614,
   71.6257,       645,
   71.6459,       583,
   71.6661,       654,
   71.6862,       646,
   71.7064,       603,
   71.7266,       609,
   71.7467,       640,
   71.7669,       628,
   71.7871,       632,
   71.8073,       598,
   71.8274,       584,
   71.8476,       650,
   71.8678,       605,
   71.8879,       629,
   71.9081,       636,
   71.9283,       561,
   71.9484,       590,
   71.9686,       634,
   71.9888,       622,
   72.0089,       648,
   72.0291,       620,
   72.0493,       628,
   72.0694,       604,
   72.0896,       622,
   72.1098,       635,
     72.13,       596,
   72.1501,       602,
   72.1703,       603,
   72.1905,       638,
   72.2106,       690,
   72.2308,       617,
    72.251,       649,
   72.2711,       627,
   72.2913,       678,
   72.3115,       630,
   72.3316,       612,
   72.3518,       648,
    72.372,       591,
   72.3921,       626,
   72.4123,       680,
   72.4325,       620,
   72.4526,       580,
   72.4728,       614,
    72.493,       592,
   72.5132,       615,
   72.5333,       682,
   72.5535,       630,
   72.5737,       678,
   72.5938,       645,
    72.614,       595,
   72.6342,       615,
   72.6543,       670,
   72.6745,       616,
   72.6947,       609,
   72.7148,       578,
    72.735,       643,
   72.7552,       628,
   72.7753,       575,
   72.7955,       631,
   72.8157,       685,
   72.8358,       649,
    72.856,       617,
   72.8762,       683,
   72.8964,       650,
   72.9165,       653,
   72.9367,       637,
   72.9569,       651,
    72.977,       665,
   72.9972,       616,
   73.0174,       643,
   73.0375,       678,
   73.0577,       629,
   73.0779,       634,
    73.098,       686,
   73.1182,       608,
   73.1384,       638,
   73.1585,       688,
   73.1787,       702,
   73.1989,       651,
   73.2191,       623,
   73.2392,       649,
   73.2594,       662,
   73.2796,       640,
   73.2997,       678,
   73.3199,       623,
   73.3401,       661,
   73.3602,       631,
   73.3804,       633,
   73.4006,       633,
   73.4207,       629,
   73.4409,       612,
   73.4611,       629,
   73.4812,       648,
   73.5014,       681,
   73.5216,       710,
   73.5417,       669,
   73.5619,       670,
   73.5821,       679,
   73.6023,       658,
   73.6224,       696,
   73.6426,       693,
   73.6628,       666,
   73.6829,       717,
   73.7031,       675,
   73.7233,       723,
   73.7434,       732,
   73.7636,       703,
   73.7838,       722,
   73.8039,       753,
   73.8241,       775,
   73.8443,       827,
   73.8644,       870,
   73.8846,       872,
   73.9048,       890,
   73.9249,       860,
   73.9451,       862,
   73.9653,       802,
   73.9855,       911,
   74.0056,       953,
   74.0258,       991,
    74.046,      1042,
   74.0661,      1106,
   74.0863,      1173,
   74.1065,      1289,
   74.1266,      1661,
   74.1468,      2009,
    74.167,      2763,
   74.1871,      4197,
   74.2073,      7030,
   74.2275,     10850,
   74.2476,     12925,
   74.2678,     10872,
    74.288,      7297,
   74.3082,      4550,
   74.3283,      3067,
   74.3485,      2413,
   74.3687,      2207,
   74.3888,      2509,
    74.409,      3274,
   74.4292,      4797,
   74.4493,      6278,
   74.4695,      6673,
   74.4897,      5443,
   74.5098,      3722,
     74.53,      2338,
   74.5502,      1746,
   74.5703,      1340,
   74.5905,      1134,
   74.6107,      1037,
   74.6308,       896,
    74.651,       898,
   74.6712,       905,
   74.6914,       821,
   74.7115,       816,
   74.7317,       822,
   74.7519,       773,
    74.772,       780,
   74.7922,       722,
   74.8124,       699,
   74.8325,       723,
   74.8527,       742,
   74.8729,       662,
    74.893,       688,
   74.9132,       705,
   74.9334,       682,
   74.9535,       685,
   74.9737,       696,
   74.9939,       696,
    75.014,       722,
   75.0342,       720,
   75.0544,       685,
   75.0746,       656,
   75.0947,       654,
   75.1149,       642,
   75.1351,       682,
   75.1552,       672,
   75.1754,       573,
   75.1956,       656,
   75.2157,       662,
   75.2359,       648,
   75.2561,       646,
   75.2762,       640,
   75.2964,       650,
   75.3166,       640,
   75.3367,       655,
   75.3569,       615,
   75.3771,       677,
   75.3973,       632,
   75.4174,       604,
   75.4376,       613,
   75.4578,       686,
   75.4779,       632,
   75.4981,       678,
   75.5183,       674,
   75.5384,       643,
   75.5586,       667,
   75.5788,       660,
   75.5989,       625,
   75.6191,       628,
   75.6393,       618,
   75.6594,       643,
   75.6796,       665,
   75.6998,       629,
   75.7199,       647,
   75.7401,       663,
   75.7603,       651,
   75.7805,       620,
   75.8006,       630,
   75.8208,       582,
    75.841,       662,
   75.8611,       634,
   75.8813,       637,
   75.9015,       670,
   75.9216,       663,
   75.9418,       624,
    75.962,       672,
   75.9821,       641,
   76.0023,       612,
   76.0225,       592,
   76.0426,       661,
   76.0628,       642,
    76.083,       657,
   76.1032,       596,
   76.1233,       632,
   76.1435,       609,
   76.1637,       633,
   76.1838,       626,
    76.204,       612,
   76.2242,       612,
   76.2443,       630,
   76.2645,       643,
   76.2847,       626,
   76.3048,       599,
    76.325,       628,
   76.3452,       621,
   76.3653,       649,
   76.3855,       673,
   76.4057,       635,
   76.4258,       649,
    76.446,       626,
   76.4662,       664,
   76.4864,       629,
   76.5065,       644,
   76.5267,       607,
   76.5469,       649,
    76.567,       628,
   76.5872,       640,
   76.6074,       645,
   76.6275,       589,
   76.6477,       621,
   76.6679,       590,
    76.688,       620,
   76.7082,       654,
   76.7284,       615,
   76.7485,       620,
   76.7687,       627,
   76.7889,       674,
    76.809,       661,
   76.8292,       601,
   76.8494,       646,
   76.8696,       613,
   76.8897,       593,
   76.9099,       630,
   76.9301,       642,
   76.9502,       630,
   76.9704,       618,
   76.9906,       636,
   77.0107,       647,
   77.0309,       631,
   77.0511,       625,
   77.0712,       592,
   77.0914,       600,
   77.1116,       631,
   77.1317,       636,
   77.1519,       657,
   77.1721,       604,
   77.1923,       607,
   77.2124,       639,
   77.2326,       602,
   77.2528,       671,
   77.2729,       634,
   77.2931,       626,
   77.3133,       577,
   77.3334,       624,
   77.3536,       613,
   77.3738,       628,
   77.3939,       638,
   77.4141,       629,
   77.4343,       593,
   77.4544,       621,
   77.4746,       651,
   77.4948,       630,
   77.5149,       636,
   77.5351,       655,
   77.5553,       627,
   77.5755,       611,
   77.5956,       619,
   77.6158,       614,
    77.636,       609,
   77.6561,       654,
   77.6763,       610,
   77.6965,       683,
   77.7166,       628,
   77.7368,       622,
    77.757,       634,
   77.7771,       603,
   77.7973,       606,
   77.8175,       631,
   77.8376,       604,
   77.8578,       615,
    77.878,       591,
   77.8981,       561,
   77.9183,       612,
   77.9385,       608,
   77.9587,       620,
   77.9788,       598,
    77.999,       595,
