;RAW4.00
[RawHeader]
Date=11/25/2025
EstimatedTotalTime=426.6
FurtherDQLReading=0
HardwareIndicator=65519
MeasuredTotalTime=4.29531
MeasurementFlag=1
NumberOfMeasuredRanges=1
NumberOfRanges=1
Time=20:12:51

[VarInfo]
Type=USER
Flags=0
Value=Lab Manager

[VarInfo]
Type=SAMPLEID
Flags=0
Value=Commander Sample ID

[VarInfo]
Type=COMMENT
Flags=0
Value=

[VarInfo]
Type=UTF
Flags=0
Value=

[VarInfo]
Type=CREATOR
Flags=0
Value=V5Converter

[VarInfo]
Type=CREATOR_VERSION
Flags=0
Value=4.4.16.0

[HardwareConfiguration]
AbsorptionFactor=9999
ActivateAbsorber=0
Alpha1=1.5406
Alpha2=1.54439
AlphaAverage=1.54184
AlphaRatio=0.5
Analyzer=0
Anode=Cu
AntiScatteringSlit=9999
BeamOpticsFlags=0
Beta=1.39222
BetaRelativeIntensity=0
DeactivateAbsorber=0
DetectorSlit=9999
DivergenceSlit=9999
GoniometerControl=0
GoniometerDiameter=282
GoniometerModel=256
GoniometerStage=7
Monochromator=0
NearSampleSlit=9999
PrimarySollerSlit=9999
SampleChanger=0
SecondSollerSlit=9999
SynchronousAxis=0
ThinFilmAttachment=9999
WaveUnit=A

[RangeHeader]
ActuallyUsedLambda=1.54184
AdditionalDetectorMask=257
DataRecordLength=4
DelayTime=0
DisplayPlaneNumber=0
EstimatedScanTime=427
ExtraParametersMask=0
GeneratorCurrent=10
GeneratorVoltage=30
Increment=0.0201685
Increment3=0
NumberOfCompletedData=1885
NumberOfCounts=1
NumberOfDetectors=0
NumberOfDrives=3
NumberOfEncoderDrives=0
NumberOfMeasuredData=1885
NumberOfVaryingParameters=0
RangeStartTime=0
RotationSpeed=0
ScanMode=1
ScanType=Locked Coupled
SimulatedMeasConditions=0
SlitChangerIn=0
SmootingWidth=0
Start=40.0015
Steps=1885
SynchronousRotation=0
Time=33

[VarInfo]
Type=PSD_DISCRIM
Flags=0
Value=0.11;0.5

[VarInfo]
Type=OPTICS_V5
Flags=0
Value=H4sIAAAAAAAEAO1d63KjOhJ+Fda/zqmtBIPtXKaITzm2J+OaOHbFTnKmtrZcBORYZzC4AOey//d99hl2X2x1QViIS8C3JBN+TCaodWm6+2vUUkfS/nieW9IjcD3o2GcV5bBakYBtOCa0H84qS396oBxV/mhqF44NnTnwgdt25gvHBrbf0X1dQq1t78uzB88qM99ffJHlp6enw6faoeM+yGq1qsh/9i9HxgzM9QNoe75uG6AStjJfb1WRbqEH7y1wpc/BWWXFR0joAM9w4cInL/Bj4UHLsSW+3oXrLBc9NBZ6t3Pgojcb3P8FDH+o+7OzitwBj9AAMt+CrxUfl1Lblu55QRehTORzoM8XqLDt2L4ObeBy/coBc6yHluEvdYtxoR6o1ePT02O5h8TkLue4tzhrTW2EZGjqqBswQr3oFvyXjl+9OdUtD2hyGln7c259hcAyrwHqHhq4EDFpA/KbJ8lNjfKD1ToCFipvdm00JDA1OUbR6Btwou9Ab2HpL824AjQ5tXK8m+bF4OrHhPzodEft64TGrBVWDOsoPhpP1bBWhrxWvISy1r0hIUP+4r8skMLHrm78xG8sGODQhXPdfSHkZBMMakgD9GxISBvSeHkPOIFIQeOidilHx44baRI9r5mSRmyEDSxUYBJZ3blu/xy4JnCvAfYzAL0wsdX3b8s5NVnMwIfj6+8T9KPV/l7IxHm5Jhp5z0OvBh9BE+kGCS98DAk920dCZMIVSikeHA9SJulgmhwp1bAq2ZMXfZT4B2LSAxc+QFu3ogSlwl6OWi7Ssb/0moPwnSLFGmsYPPedJdIj0qJQrgWE0MJ5JCOdEXICmjFtjmnJUA7J0tRxpRHQLUBtYA3AytxYcejGiMm4JZa46kmmLG0LrhEWBa3xcus++8A2MZDfDYZpCWdMkQKtj5nwHfcltGVFk+OFGseMJxH2qHoYWND7cnJosmJN5ku1uCnh1+H65qyTKx3Y545jAR1NEG5s6BPpdiDSG56bXcI59IlYwiKvWdVk7knrgKm+tPxb3VoCboigVyQ96CPXTshnFewlKri/oQta5l9LD8GnYEuZYx67mbHTJoqe6ZblPK0cjVCOarZnwPgJzFUVVqC1ESPOHKsWvx33pNH5Zl7erhEyxkg2xVq1lr7TdoHug6HrLIDrvzAWEyiR9/eIRfdMhLKr5fweuE21rslCEdaQRS08UPF//xMyUSUc9B0TNG8Quqbos4xMnTwz90Y+PzEHluy7tuWt5HgP/ND5vNXOHBXjLvaN2aNbYuh5A79Evm3IJvErCL6JJ23LP418rD3OPSHRTOHDEjnla/gw85sIdabECnU0BoKwUKWYS+vrz5fAfvBnTbXRwKJhj2nOjrJISkNktZevObqMVm/q5DL4SnFwGS02cm5pFninPwKqkpa1mOmKYIUieVuWOJh2nCVqyWzxf//ehzWm2Nxw9uJBQ7dIeQJnTA/KYaNePXrNFtfo7ca2MPfItOjcf/WMZelYS+paugfVBtErK9H60Ibz5bx5oBwenx4fndaUWv3kSK0pjePu32vVE4S4oAZGIvklvWZQ4W0Rs4b0UpC0Rk/7QJiajTD10yOsXjvdJsRYdyXGNhLfFkDGuto1yh6Bqz+IoV6M/ulxppzUt4kz1l2Js43EtwWcsa52jLNz4OupIMPET46w2qmqqttD2Kq7EmEbiW9jhK262jHCrvGaRirECHVXGHuvCFutth02NsJWrKMSVWsKbh08xTrZCZK+OsbSG7gQ2D5ZHRSgJJK3tspG1g4H057tH9XfH6CibEVXr/OjKbkXhfRCBYDfqOeDOWLs0nmABl3VvJn0rm5bl73OpP2tN9TkFYkJfAye/WbPftQtiMQzg4uVjCJaIvW07+CFjI1lEf6uyTEWsnm67F2lsnIJbSARW0kbWtlk6OEgY+yhA20/e3B1k8GZLoaD0auqCHeKD6S58wgk35HmwJjpNrYKCTmTxd/SeKxl8/ienF2WXefzdFk9bOTm6N5Lz546UqiqhAVciZbr3FOQY3BWIVUkVBrdJr+ZtC6H31rRcrGRhEeyyEjkXXKxo0bYURPZUVPYUbPYUQuzEywL8PxEyoQBQloib5PW7UUWe0HrokySmCrg8D78PeybkkWGzrvjVjIvuH4+FiIbUQEDqBXeyxN46LJSkY3uZbffvRqnSMV2TCAFbaXVSDlkQmfBvNq4EkHsASVZZdetcW+QpTTSOp+8YlOLgL9pYnk4ToQicvl10J4MrpMZJONJkeZyfMe6Ed+xvgA2skTfcYU8TFacvPmcsQFLZ8dr7r82tXQiP3O7dSw/voYXlO4q5vl5u6WEjcypLxqFfRNqVSHyCL4FKaFHctihVBMCjFp1f7FErbF+MBEXRsEvZLo55TW19tJ1sT+LmlpQuitTm7f2YWpolHD6sQ1TaySFsh/E0uKy2LulDZ0nkgHOmxQp25WV3aUEnW+xcHMnRJr5lluqhymm+EkWW+4491hde7Ul3ssWbV9+7YtfJA0UTQyNGXBfyVbbPA8ud74bklUw60j9YgWfilQ/I4dzraYmBmuZ2QhiKJW9qxqLdLI3h6IxR/YytzAXT1vD42MIIXVJnC4nR8cylyaJ7OZRhxZeJcCPHu2eWH2ZQFkmUJYJlGUCZZlA+fE2xcsEyvezJV4mUP6aCCsTKN8TxsoEyl8VZ2UC5XvCWZlA+ashrEygfE8IKxMoywTKMoGyTKAsEyjLBMoygbJMoCwTKMsEyjKBskygLBMoywTKMoGyTKAsEyjLBMoygbJMoHzr+KNMoCwTKD9tAiXLkUS/iumT7KzT+Cmg4tm7GScqd+cL/4UkG4arGcVOT+72h4PRhP4scnoyGTg0xcTzk2U+BzLzcGMl7XBjde+HGw8WbefceR5MR45lATfhiGNKyDjkmKsg/WbotmTQQ8ElNJZEifQE7N/XgX9k+LhXSSBnuYaE6hunwkb7FPSZfOxxRGTIPPKL8PePe2KymphYK0bAR+scevtxXAin6Q2diJrmRGpv50S+wmdgEkNlcw/RmVjQz3IliCz1U2CAaRv4kdXICV5EJGb6ELHy5h6E61FQZYr/YA2o98gntQ/sOmq5XMfxeudlE7OmVzSsTJpYMhZe0hcRy1SR/jGf/zPDjH/DR/7fA2QfErQ9hAVgol98R9I5hWWaMq5mhBds4KeJUp0oaQYcIb5mwIVtN52ZmPP5qH/5US30lx930PRnYm4HLtvZktP8/WxBxzgL44DNsuvjPeVdZqh+7nWGuODWWWeI97KTtI5vABumgB1a+LnBszXslNBZz+i3gpzt3wSirjOzGenzhQXuZgBYY/QC/KUgIkkjH65UJ0ChmfamMj+F+lCxGJtFbxiJ1dIisfpGkRjhMR6HvT9h3thLD5hkeHHgLInKwm1g17oJl16CldWVYB+fXrg3mE494KdZfesZevz3Iay2B1ceYybnbh1ywVU1LSlVPTypn6qNRkNN8LvHjcOTRv24dqQqvK8VhNAM7mETbitc+w7DEUCRgJl9i2FYh7v9roNCXwNnMmzhLkORh4SYKLFGsfsMwz42ifVFRj70nYaF9FrM/4zwzYaj4jcbRuW787sNw+F2cbvhyRss3uHlOks3wMyxzMQtgMsX+xm8pBxzcfnj6s/ujy654bCjSsOZ7olX4OYEsRyOEwezQMpa3mDWKOO8X3k4Wj2jProvYAvX6KYzLmrzl7v28CTPUlxNiU9Yi8wL0ecUu0XdWrmWfniNJk2pxn6HJHazGl4xZ9PpjyfkXwFHw4ba6R6gstmscZebgP09bgIKCIswkLYN2N/zNmAmj6JSs3YC+59rJ1Cp53Ii1c+wFVhGSkUjpbRAqXF4dHrSUJRqPWmBqqEcHldP68dqfQeB0sontAHGieA9hcKI4+SmzLSadMAw70kjnLfkkW8dVkPLMIDnOS4E3hoRE+Mi7j2jlLwRUvyl1/ekrIcPHRqtqcpiLudicNWekB9FHA7lZ+eh0Ri4qHQnkdHp3mdFwxkkShPAfO0EGXBRYgTUqKlErdE1Wb0CGJXZGHSdNqGDKCsJ1TJnP6vqMuJUZpxuDuAUxgVFpsREEgUYMFu+rxszPNBZ5WDPRwluc5pzmitr4SQ+y+l5TBQhKMMCjfMcZLfIWj48ALPjYkzSv8ZE3eHvWs9sIu2S3oNHTCEVRwtgwGnwt6KsUpyC4BLvvcgEK46DYs5u+K03mpAfRZxdFKHbnGBVi0yvQisOP5lEYfRDEPwf22IqXU7pckqXI7qcECvsd+8VLsZPznhGTjB6jZVIzZz8ZA+dc9yig6ZEJvFifFQxXo8YAd9H0PIkfi6GHAXNPKxILbzB7vVR6AbplI5NtLGOuVT/5i2e1Rn4EFu+VFtBkewhB6uqmiyUa3yqI/WAkWUTj/6JxSqYYK6D6Pv/u9RXv2COAAA=

[PSD]
ActualTwoTheta=9999
FirstUsedChannel=0
FixedPSD=0
PSDOpening=4.99171
PSDType=5

[Drive]
DriveFlags=1
DriveName=2Theta
DriveNumber=2
DriveOffset=0
OffsetIndex=0
OscillationAmplitude=0
OscillationSpeed=0
StartPosition=40.0015

[Drive]
DriveFlags=1
DriveName=Theta
DriveNumber=1
DriveOffset=0
OffsetIndex=0
OscillationAmplitude=0
OscillationSpeed=0
StartPosition=20.0007

[Drive]
DriveFlags=1
DriveName=Phi
DriveNumber=3
DriveOffset=0
OffsetIndex=0
OscillationAmplitude=0
OscillationSpeed=0
StartPosition=0

[Data]
     Angle,       PSD,
   40.0015,       633,
   40.0217,       664,
   40.0418,       568,
    40.062,       627,
   40.0822,       645,
   40.1023,       632,
   40.1225,       633,
   40.1427,       633,
   40.1628,       640,
    40.183,       640,
   40.2032,       627,
   40.2233,       601,
   40.2435,       627,
   40.2637,       689,
   40.2838,       614,
    40.304,       648,
   40.3242,       649,
   40.3444,       626,
   40.3645,       611,
   40.3847,       618,
   40.4049,       629,
    40.425,       656,
   40.4452,       668,
   40.4654,       662,
   40.4855,       624,
   40.5057,       646,
   40.5259,       658,
    40.546,       630,
   40.5662,       671,
   40.5864,       642,
   40.6065,       611,
   40.6267,       650,
   40.6469,       657,
   40.6671,       635,
   40.6872,       638,
   40.7074,       604,
   40.7276,       652,
   40.7477,       594,
   40.7679,       646,
   40.7881,       584,
   40.8082,       614,
   40.8284,       602,
   40.8486,       619,
   40.8687,       643,
   40.8889,       699,
   40.9091,       655,
   40.9292,       649,
   40.9494,       659,
   40.9696,       641,
   40.9897,       656,
   41.0099,       628,
   41.0301,       626,
   41.0503,       663,
   41.0704,       654,
   41.0906,       659,
   41.1108,       666,
   41.1309,       628,
   41.1511,       640,
   41.1713,       678,
   41.1914,       661,
   41.2116,       698,
   41.2318,       725,
   41.2519,       670,
   41.2721,       673,
   41.2923,       668,
   41.3124,       653,
   41.3326,       675,
   41.3528,       648,
   41.3729,       700,
   41.3931,       663,
   41.4133,       667,
   41.4335,       696,
   41.4536,       626,
   41.4738,       675,
    41.494,       669,
   41.5141,       747,
   41.5343,       666,
   41.5545,       660,
   41.5746,       672,
   41.5948,       659,
    41.615,       639,
   41.6351,       703,
   41.6553,       697,
   41.6755,       702,
   41.6956,       664,
   41.7158,       675,
    41.736,       680,
   41.7562,       719,
   41.7763,       704,
   41.7965,       735,
   41.8167,       722,
   41.8368,       724,
    41.857,       734,
   41.8772,       676,
   41.8973,       695,
   41.9175,       757,
   41.9377,       726,
   41.9578,       719,
    41.978,       728,
   41.9982,       774,
   42.0183,       754,
   42.0385,       844,
   42.0587,       768,
   42.0788,       803,
    42.099,       794,
   42.1192,       782,
   42.1394,       839,
   42.1595,       830,
   42.1797,       785,
   42.1999,       815,
     42.22,       855,
   42.2402,       811,
   42.2604,       825,
   42.2805,       858,
   42.3007,       866,
   42.3209,       813,
    42.341,       866,
   42.3612,       833,
   42.3814,       851,
   42.4015,       830,
   42.4217,       907,
   42.4419,       860,
    42.462,       895,
   42.4822,       848,
   42.5024,       891,
   42.5226,       944,
   42.5427,       852,
   42.5629,       904,
   42.5831,       877,
   42.6032,       937,
   42.6234,       852,
   42.6436,       896,
   42.6637,       915,
   42.6839,       938,
   42.7041,       973,
   42.7242,      1005,
   42.7444,       993,
   42.7646,      1034,
   42.7847,      1023,
   42.8049,      1086,
   42.8251,      1095,
   42.8453,      1093,
   42.8654,      1165,
   42.8856,      1202,
   42.9058,      1223,
   42.9259,      1216,
   42.9461,      1279,
   42.9663,      1338,
   42.9864,      1294,
   43.0066,      1469,
   43.0268,      1528,
   43.0469,      1484,
   43.0671,      1659,
   43.0873,      1808,
   43.1074,      1803,
   43.1276,      1979,
   43.1478,      2040,
   43.1679,      2273,
   43.1881,      2399,
   43.2083,      2730,
   43.2285,      2968,
   43.2486,      3431,
   43.2688,      3832,
    43.289,      4134,
   43.3091,      4728,
   43.3293,      5416,
   43.3495,      6423,
   43.3696,      7480,
   43.3898,      8883,
     43.41,     10054,
   43.4301,     11816,
   43.4503,     12953,
   43.4705,     14138,
   43.4906,     14986,
   43.5108,     15251,
    43.531,     15076,
   43.5511,     14540,
   43.5713,     13951,
   43.5915,     12953,
   43.6117,     12082,
   43.6318,     10982,
    43.652,      9561,
   43.6722,      8511,
   43.6923,      7397,
   43.7125,      6657,
   43.7327,      5636,
   43.7528,      5039,
    43.773,      4429,
   43.7932,      3966,
   43.8133,      3577,
   43.8335,      3133,
   43.8537,      2894,
   43.8738,      2627,
    43.894,      2394,
   43.9142,      2270,
   43.9344,      2029,
   43.9545,      1930,
   43.9747,      1806,
   43.9949,      1688,
    44.015,      1608,
   44.0352,      1573,
   44.0554,      1540,
   44.0755,      1518,
   44.0957,      1342,
   44.1159,      1373,
    44.136,      1258,
   44.1562,      1230,
   44.1764,      1244,
   44.1965,      1164,
   44.2167,      1200,
   44.2369,      1118,
    44.257,      1114,
   44.2772,      1072,
   44.2974,      1109,
   44.3176,      1022,
   44.3377,      1021,
   44.3579,       999,
   44.3781,       989,
   44.3982,       993,
   44.4184,      1032,
   44.4386,       973,
   44.4587,       963,
   44.4789,       955,
   44.4991,       991,
   44.5192,       951,
   44.5394,       980,
   44.5596,       932,
   44.5797,       892,
   44.5999,       917,
   44.6201,       899,
   44.6402,       943,
   44.6604,       889,
   44.6806,       895,
   44.7008,       869,
   44.7209,       866,
   44.7411,       850,
   44.7613,       879,
   44.7814,       821,
   44.8016,       814,
   44.8218,       829,
   44.8419,       857,
   44.8621,       838,
   44.8823,       828,
   44.9024,       835,
   44.9226,       776,
   44.9428,       826,
   44.9629,       867,
   44.9831,       820,
   45.0033,       843,
   45.0235,       787,
   45.0436,       842,
   45.0638,       829,
    45.084,       820,
   45.1041,       824,
   45.1243,       784,
   45.1445,       795,
   45.1646,       812,
   45.1848,       737,
    45.205,       777,
   45.2251,       762,
   45.2453,       768,
   45.2655,       844,
   45.2856,       803,
   45.3058,       737,
    45.326,       793,
   45.3461,       754,
   45.3663,       739,
   45.3865,       802,
   45.4067,       761,
   45.4268,       803,
    45.447,       754,
   45.4672,       802,
   45.4873,       762,
   45.5075,       785,
   45.5277,       778,
   45.5478,       771,
    45.568,       775,
   45.5882,       766,
   45.6083,       786,
   45.6285,       782,
   45.6487,       715,
   45.6688,       787,
    45.689,       797,
   45.7092,       709,
   45.7294,       722,
   45.7495,       729,
   45.7697,       731,
   45.7899,       743,
     45.81,       690,
   45.8302,       747,
   45.8504,       706,
   45.8705,       744,
   45.8907,       718,
   45.9109,       738,
    45.931,       700,
   45.9512,       698,
   45.9714,       637,
   45.9915,       741,
   46.0117,       712,
   46.0319,       735,
    46.052,       787,
   46.0722,       742,
   46.0924,       671,
   46.1126,       650,
   46.1327,       795,
   46.1529,       688,
   46.1731,       715,
   46.1932,       684,
   46.2134,       715,
   46.2336,       741,
   46.2537,       726,
   46.2739,       718,
   46.2941,       726,
   46.3142,       691,
   46.3344,       758,
   46.3546,       701,
   46.3747,       667,
   46.3949,       708,
   46.4151,       735,
   46.4352,       734,
   46.4554,       723,
   46.4756,       688,
   46.4958,       705,
   46.5159,       704,
   46.5361,       704,
   46.5563,       706,
   46.5764,       683,
   46.5966,       723,
   46.6168,       723,
   46.6369,       728,
   46.6571,       697,
   46.6773,       757,
   46.6974,       701,
   46.7176,       681,
   46.7378,       711,
   46.7579,       777,
   46.7781,       716,
   46.7983,       668,
   46.8185,       712,
   46.8386,       685,
   46.8588,       670,
    46.879,       718,
   46.8991,       756,
   46.9193,       622,
   46.9395,       665,
   46.9596,       761,
   46.9798,       672,
        47,       738,
   47.0201,       673,
   47.0403,       730,
   47.0605,       738,
   47.0806,       729,
   47.1008,       697,
    47.121,       685,
   47.1411,       673,
   47.1613,       729,
   47.1815,       721,
   47.2017,       692,
   47.2218,       703,
    47.242,       755,
   47.2622,       658,
   47.2823,       727,
   47.3025,       715,
   47.3227,       739,
   47.3428,       661,
    47.363,       700,
   47.3832,       687,
   47.4033,       742,
   47.4235,       678,
   47.4437,       700,
   47.4638,       732,
    47.484,       695,
   47.5042,       707,
   47.5243,       657,
   47.5445,       747,
   47.5647,       671,
   47.5849,       670,
    47.605,       708,
   47.6252,       736,
   47.6454,       712,
   47.6655,       688,
   47.6857,       707,
   47.7059,       720,
    47.726,       675,
   47.7462,       670,
   47.7664,       691,
   47.7865,       669,
   47.8067,       706,
   47.8269,       727,
    47.847,       727,
   47.8672,       695,
   47.8874,       729,
   47.9076,       674,
   47.9277,       673,
   47.9479,       685,
   47.9681,       724,
   47.9882,       698,
   48.0084,       681,
   48.0286,       683,
   48.0487,       692,
   48.0689,       710,
   48.0891,       699,
   48.1092,       726,
   48.1294,       712,
   48.1496,       683,
   48.1697,       711,
   48.1899,       734,
   48.2101,       696,
   48.2302,       704,
   48.2504,       698,
   48.2706,       693,
   48.2908,       696,
   48.3109,       655,
   48.3311,       696,
   48.3513,       649,
   48.3714,       682,
   48.3916,       691,
   48.4118,       696,
   48.4319,       675,
   48.4521,       732,
   48.4723,       700,
   48.4924,       712,
   48.5126,       716,
   48.5328,       772,
   48.5529,       677,
   48.5731,       725,
   48.5933,       734,
   48.6134,       709,
   48.6336,       691,
   48.6538,       717,
    48.674,       705,
   48.6941,       719,
   48.7143,       701,
   48.7345,       722,
   48.7546,       729,
   48.7748,       721,
    48.795,       688,
   48.8151,       704,
   48.8353,       716,
   48.8555,       692,
   48.8756,       710,
   48.8958,       744,
    48.916,       775,
   48.9361,       729,
   48.9563,       719,
   48.9765,       757,
   48.9967,       733,
   49.0168,       735,
    49.037,       720,
   49.0572,       743,
   49.0773,       747,
   49.0975,       811,
   49.1177,       758,
   49.1378,       808,
    49.158,       802,
   49.1782,       748,
   49.1983,       792,
   49.2185,       767,
   49.2387,       786,
   49.2588,       756,
    49.279,       786,
   49.2992,       773,
   49.3193,       852,
   49.3395,       835,
   49.3597,       781,
   49.3799,       766,
      49.4,       789,
   49.4202,       787,
   49.4404,       772,
   49.4605,       808,
   49.4807,       804,
   49.5009,       843,
    49.521,       818,
   49.5412,       797,
   49.5614,       830,
   49.5815,       886,
   49.6017,       842,
   49.6219,       850,
    49.642,       840,
   49.6622,       816,
   49.6824,       882,
   49.7025,       940,
   49.7227,       885,
   49.7429,       914,
   49.7631,       885,
   49.7832,       947,
   49.8034,       932,
   49.8236,       993,
   49.8437,       920,
   49.8639,       941,
   49.8841,       954,
   49.9042,      1047,
   49.9244,      1021,
   49.9446,      1034,
   49.9647,      1079,
   49.9849,      1077,
   50.0051,      1105,
   50.0252,      1176,
   50.0454,      1149,
   50.0656,      1215,
   50.0858,      1219,
   50.1059,      1310,
   50.1261,      1373,
   50.1463,      1376,
   50.1664,      1486,
   50.1866,      1553,
   50.2068,      1627,
   50.2269,      1633,
   50.2471,      1766,
   50.2673,      1837,
   50.2874,      1975,
   50.3076,      2029,
   50.3278,      2174,
   50.3479,      2219,
   50.3681,      2368,
   50.3883,      2520,
   50.4084,      2715,
   50.4286,      2845,
   50.4488,      2968,
    50.469,      3180,
   50.4891,      3259,
   50.5093,      3368,
   50.5295,      3587,
   50.5496,      3607,
   50.5698,      3693,
     50.59,      3809,
   50.6101,      3838,
   50.6303,      3823,
   50.6505,      3889,
   50.6706,      3779,
   50.6908,      3820,
    50.711,      3710,
   50.7311,      3608,
   50.7513,      3496,
   50.7715,      3252,
   50.7917,      3204,
   50.8118,      2986,
    50.832,      2883,
   50.8522,      2754,
   50.8723,      2549,
   50.8925,      2492,
   50.9127,      2320,
   50.9328,      2151,
    50.953,      1956,
   50.9732,      1957,
   50.9933,      1859,
   51.0135,      1717,
   51.0337,      1710,
   51.0538,      1596,
    51.074,      1502,
   51.0942,      1475,
   51.1143,      1359,
   51.1345,      1339,
   51.1547,      1268,
   51.1749,      1262,
    51.195,      1201,
   51.2152,      1136,
   51.2354,      1173,
   51.2555,      1063,
   51.2757,      1067,
   51.2959,      1044,
    51.316,       961,
   51.3362,       929,
   51.3564,       957,
   51.3765,       951,
   51.3967,       956,
   51.4169,       903,
    51.437,       904,
   51.4572,       870,
   51.4774,       895,
   51.4975,       864,
   51.5177,       849,
   51.5379,       803,
   51.5581,       824,
   51.5782,       814,
   51.5984,       805,
   51.6186,       785,
   51.6387,       802,
   51.6589,       765,
   51.6791,       789,
   51.6992,       747,
   51.7194,       738,
   51.7396,       758,
   51.7597,       778,
   51.7799,       741,
   51.8001,       724,
   51.8202,       720,
   51.8404,       759,
   51.8606,       707,
   51.8808,       734,
   51.9009,       726,
   51.9211,       772,
   51.9413,       708,
   51.9614,       709,
   51.9816,       723,
   52.0018,       720,
   52.0219,       736,
   52.0421,       711,
   52.0623,       719,
   52.0824,       709,
   52.1026,       740,
   52.1228,       676,
   52.1429,       692,
   52.1631,       682,
   52.1833,       673,
   52.2034,       702,
   52.2236,       672,
   52.2438,       664,
    52.264,       672,
   52.2841,       696,
   52.3043,       667,
   52.3245,       697,
   52.3446,       687,
   52.3648,       713,
    52.385,       741,
   52.4051,       691,
   52.4253,       686,
   52.4455,       650,
   52.4656,       660,
   52.4858,       690,
    52.506,       720,
   52.5261,       633,
   52.5463,       690,
   52.5665,       669,
   52.5866,       694,
   52.6068,       636,
    52.627,       657,
   52.6472,       673,
   52.6673,       644,
   52.6875,       668,
   52.7077,       670,
   52.7278,       654,
    52.748,       656,
   52.7682,       649,
   52.7883,       665,
   52.8085,       652,
   52.8287,       641,
   52.8488,       651,
    52.869,       683,
   52.8892,       676,
   52.9093,       668,
   52.9295,       661,
   52.9497,       688,
   52.9699,       680,
     52.99,       669,
   53.0102,       643,
   53.0304,       651,
   53.0505,       649,
   53.0707,       677,
   53.0909,       670,
    53.111,       671,
   53.1312,       635,
   53.1514,       636,
   53.1715,       618,
   53.1917,       685,
   53.2119,       665,
    53.232,       626,
   53.2522,       712,
   53.2724,       609,
   53.2925,       643,
   53.3127,       628,
   53.3329,       646,
   53.3531,       637,
   53.3732,       653,
   53.3934,       630,
   53.4136,       626,
   53.4337,       680,
   53.4539,       615,
   53.4741,       633,
   53.4942,       642,
   53.5144,       655,
   53.5346,       690,
   53.5547,       631,
   53.5749,       626,
   53.5951,       663,
   53.6152,       661,
   53.6354,       642,
   53.6556,       639,
   53.6757,       609,
   53.6959,       638,
   53.7161,       637,
   53.7363,       614,
   53.7564,       682,
   53.7766,       612,
   53.7968,       649,
   53.8169,       663,
   53.8371,       658,
   53.8573,       656,
   53.8774,       597,
   53.8976,       625,
   53.9178,       616,
   53.9379,       615,
   53.9581,       649,
   53.9783,       656,
   53.9984,       646,
   54.0186,       640,
   54.0388,       580,
    54.059,       614,
   54.0791,       703,
   54.0993,       573,
   54.1195,       606,
   54.1396,       632,
   54.1598,       608,
     54.18,       654,
   54.2001,       668,
   54.2203,       690,
   54.2405,       615,
   54.2606,       626,
   54.2808,       651,
    54.301,       581,
   54.3211,       661,
   54.3413,       631,
   54.3615,       623,
   54.3816,       638,
   54.4018,       633,
    54.422,       643,
   54.4422,       631,
   54.4623,       635,
   54.4825,       618,
   54.5027,       600,
   54.5228,       618,
    54.543,       613,
   54.5632,       599,
   54.5833,       635,
   54.6035,       604,
   54.6237,       577,
   54.6438,       571,
    54.664,       636,
   54.6842,       612,
   54.7043,       629,
   54.7245,       616,
   54.7447,       638,
   54.7648,       648,
    54.785,       627,
   54.8052,       624,
   54.8254,       664,
   54.8455,       622,
   54.8657,       637,
   54.8859,       622,
    54.906,       624,
   54.9262,       627,
   54.9464,       634,
   54.9665,       640,
   54.9867,       628,
   55.0069,       640,
    55.027,       669,
   55.0472,       610,
   55.0674,       617,
   55.0875,       644,
   55.1077,       642,
   55.1279,       619,
   55.1481,       647,
   55.1682,       621,
   55.1884,       617,
   55.2086,       646,
   55.2287,       650,
   55.2489,       600,
   55.2691,       606,
   55.2892,       609,
   55.3094,       605,
   55.3296,       642,
   55.3497,       620,
   55.3699,       594,
   55.3901,       598,
   55.4102,       627,
   55.4304,       630,
   55.4506,       649,
   55.4707,       653,
   55.4909,       639,
   55.5111,       595,
   55.5313,       627,
   55.5514,       595,
   55.5716,       591,
   55.5918,       658,
   55.6119,       602,
   55.6321,       600,
   55.6523,       627,
   55.6724,       653,
   55.6926,       653,
   55.7128,       618,
   55.7329,       634,
   55.7531,       556,
   55.7733,       610,
   55.7934,       617,
   55.8136,       603,
   55.8338,       634,
    55.854,       580,
   55.8741,       657,
   55.8943,       604,
   55.9145,       667,
   55.9346,       596,
   55.9548,       620,
    55.975,       629,
   55.9951,       570,
   56.0153,       613,
   56.0355,       614,
   56.0556,       626,
   56.0758,       637,
    56.096,       621,
   56.1161,       630,
   56.1363,       595,
   56.1565,       614,
   56.1766,       577,
   56.1968,       646,
    56.217,       621,
   56.2372,       603,
   56.2573,       622,
   56.2775,       585,
   56.2977,       600,
   56.3178,       559,
    56.338,       614,
   56.3582,       613,
   56.3783,       606,
   56.3985,       611,
   56.4187,       599,
   56.4388,       624,
    56.459,       618,
   56.4792,       591,
   56.4993,       644,
   56.5195,       581,
   56.5397,       648,
   56.5598,       585,
     56.58,       652,
   56.6002,       644,
   56.6204,       616,
   56.6405,       590,
   56.6607,       623,
   56.6809,       622,
    56.701,       591,
   56.7212,       607,
   56.7414,       607,
   56.7615,       590,
   56.7817,       646,
   56.8019,       615,
    56.822,       611,
   56.8422,       594,
   56.8624,       608,
   56.8825,       578,
   56.9027,       653,
   56.9229,       617,
   56.9431,       621,
   56.9632,       615,
   56.9834,       620,
   57.0036,       606,
   57.0237,       652,
   57.0439,       611,
   57.0641,       683,
   57.0842,       636,
   57.1044,       648,
   57.1246,       636,
   57.1447,       639,
   57.1649,       625,
   57.1851,       558,
   57.2052,       600,
   57.2254,       594,
   57.2456,       631,
   57.2657,       572,
   57.2859,       600,
   57.3061,       582,
   57.3263,       573,
   57.3464,       576,
   57.3666,       605,
   57.3868,       620,
   57.4069,       603,
   57.4271,       617,
   57.4473,       620,
   57.4674,       607,
   57.4876,       591,
   57.5078,       623,
   57.5279,       603,
   57.5481,       590,
   57.5683,       605,
   57.5884,       589,
   57.6086,       571,
   57.6288,       627,
   57.6489,       590,
   57.6691,       601,
   57.6893,       622,
   57.7095,       593,
   57.7296,       617,
   57.7498,       638,
     57.77,       576,
   57.7901,       600,
   57.8103,       610,
   57.8305,       621,
   57.8506,       648,
   57.8708,       588,
    57.891,       586,
   57.9111,       632,
   57.9313,       610,
   57.9515,       617,
   57.9716,       590,
   57.9918,       622,
    58.012,       607,
   58.0322,       629,
   58.0523,       631,
   58.0725,       600,
   58.0927,       637,
   58.1128,       609,
    58.133,       616,
   58.1532,       596,
   58.1733,       616,
   58.1935,       592,
   58.2137,       593,
   58.2338,       628,
    58.254,       621,
   58.2742,       634,
   58.2943,       622,
   58.3145,       571,
   58.3347,       566,
   58.3548,       573,
    58.375,       558,
   58.3952,       574,
   58.4154,       661,
   58.4355,       631,
   58.4557,       583,
   58.4759,       580,
    58.496,       589,
   58.5162,       600,
   58.5364,       611,
   58.5565,       592,
   58.5767,       583,
   58.5969,       601,
    58.617,       592,
   58.6372,       629,
   58.6574,       641,
   58.6775,       610,
   58.6977,       604,
   58.7179,       559,
    58.738,       609,
   58.7582,       626,
   58.7784,       630,
   58.7986,       586,
   58.8187,       606,
   58.8389,       586,
   58.8591,       530,
   58.8792,       639,
   58.8994,       658,
   58.9196,       599,
   58.9397,       650,
   58.9599,       621,
   58.9801,       621,
   59.0002,       615,
   59.0204,       601,
   59.0406,       621,
   59.0607,       590,
   59.0809,       600,
   59.1011,       625,
   59.1213,       590,
   59.1414,       601,
   59.1616,       578,
   59.1818,       617,
   59.2019,       624,
   59.2221,       596,
   59.2423,       604,
   59.2624,       633,
   59.2826,       604,
   59.3028,       588,
   59.3229,       580,
   59.3431,       641,
   59.3633,       601,
   59.3834,       615,
   59.4036,       636,
   59.4238,       629,
   59.4439,       597,
   59.4641,       616,
   59.4843,       625,
   59.5045,       623,
   59.5246,       622,
   59.5448,       591,
    59.565,       635,
   59.5851,       601,
   59.6053,       579,
   59.6255,       602,
   59.6456,       638,
   59.6658,       644,
    59.686,       604,
   59.7061,       628,
   59.7263,       653,
   59.7465,       563,
   59.7666,       600,
   59.7868,       621,
    59.807,       599,
   59.8271,       632,
   59.8473,       617,
   59.8675,       584,
   59.8877,       579,
   59.9078,       617,
    59.928,       595,
   59.9482,       610,
   59.9683,       583,
   59.9885,       608,
   60.0087,       597,
   60.0288,       628,
    60.049,       574,
   60.0692,       596,
   60.0893,       554,
   60.1095,       652,
   60.1297,       597,
   60.1498,       610,
     60.17,       650,
   60.1902,       612,
   60.2104,       638,
   60.2305,       606,
   60.2507,       624,
   60.2709,       597,
    60.291,       592,
   60.3112,       604,
   60.3314,       584,
   60.3515,       599,
   60.3717,       598,
   60.3919,       600,
    60.412,       611,
   60.4322,       604,
   60.4524,       582,
   60.4725,       594,
   60.4927,       586,
   60.5129,       598,
    60.533,       629,
   60.5532,       612,
   60.5734,       616,
   60.5936,       599,
   60.6137,       567,
   60.6339,       592,
   60.6541,       623,
   60.6742,       609,
   60.6944,       647,
   60.7146,       586,
   60.7347,       623,
   60.7549,       593,
   60.7751,       616,
   60.7952,       559,
   60.8154,       606,
   60.8356,       600,
   60.8557,       613,
   60.8759,       627,
   60.8961,       595,
   60.9163,       612,
   60.9364,       569,
   60.9566,       582,
   60.9768,       559,
   60.9969,       577,
   61.0171,       573,
   61.0373,       626,
   61.0574,       583,
   61.0776,       607,
   61.0978,       584,
   61.1179,       608,
   61.1381,       574,
   61.1583,       614,
   61.1784,       573,
   61.1986,       583,
   61.2188,       616,
   61.2389,       620,
   61.2591,       615,
   61.2793,       598,
   61.2995,       618,
   61.3196,       628,
   61.3398,       582,
     61.36,       600,
   61.3801,       575,
   61.4003,       597,
   61.4205,       592,
   61.4406,       652,
   61.4608,       594,
    61.481,       557,
   61.5011,       578,
   61.5213,       564,
   61.5415,       597,
   61.5616,       556,
   61.5818,       584,
    61.602,       597,
   61.6221,       626,
   61.6423,       566,
   61.6625,       605,
   61.6827,       602,
   61.7028,       515,
    61.723,       615,
   61.7432,       610,
   61.7633,       597,
   61.7835,       601,
   61.8037,       574,
   61.8238,       638,
    61.844,       581,
   61.8642,       617,
   61.8843,       620,
   61.9045,       579,
   61.9247,       586,
   61.9448,       604,
    61.965,       596,
   61.9852,       580,
   62.0054,       604,
   62.0255,       603,
   62.0457,       590,
   62.0659,       592,
    62.086,       604,
   62.1062,       636,
   62.1264,       603,
   62.1465,       602,
   62.1667,       570,
   62.1869,       588,
    62.207,       570,
   62.2272,       584,
   62.2474,       625,
   62.2675,       556,
   62.2877,       585,
   62.3079,       624,
    62.328,       601,
   62.3482,       574,
   62.3684,       617,
   62.3886,       581,
   62.4087,       612,
   62.4289,       604,
   62.4491,       616,
   62.4692,       616,
   62.4894,       622,
   62.5096,       602,
   62.5297,       579,
   62.5499,       588,
   62.5701,       600,
   62.5902,       601,
   62.6104,       597,
   62.6306,       599,
   62.6507,       603,
   62.6709,       622,
   62.6911,       610,
   62.7112,       543,
   62.7314,       613,
   62.7516,       584,
   62.7718,       581,
   62.7919,       605,
   62.8121,       612,
   62.8323,       581,
   62.8524,       624,
   62.8726,       622,
   62.8928,       544,
   62.9129,       559,
   62.9331,       586,
   62.9533,       625,
   62.9734,       552,
   62.9936,       614,
   63.0138,       596,
   63.0339,       610,
   63.0541,       602,
   63.0743,       592,
   63.0945,       585,
   63.1146,       566,
   63.1348,       580,
    63.155,       619,
   63.1751,       560,
   63.1953,       542,
   63.2155,       596,
   63.2356,       569,
   63.2558,       568,
    63.276,       561,
   63.2961,       548,
   63.3163,       590,
   63.3365,       596,
   63.3566,       590,
   63.3768,       588,
    63.397,       612,
   63.4171,       577,
   63.4373,       573,
   63.4575,       632,
   63.4777,       594,
   63.4978,       570,
    63.518,       590,
   63.5382,       576,
   63.5583,       607,
   63.5785,       612,
   63.5987,       572,
   63.6188,       613,
    63.639,       556,
   63.6592,       572,
   63.6793,       579,
   63.6995,       592,
   63.7197,       587,
   63.7398,       612,
     63.76,       593,
   63.7802,       580,
   63.8003,       579,
   63.8205,       611,
   63.8407,       591,
   63.8609,       614,
    63.881,       579,
   63.9012,       589,
   63.9214,       550,
   63.9415,       607,
   63.9617,       578,
   63.9819,       571,
    64.002,       587,
   64.0222,       587,
   64.0424,       594,
   64.0625,       597,
   64.0827,       571,
   64.1029,       567,
    64.123,       607,
   64.1432,       587,
   64.1634,       570,
   64.1836,       587,
   64.2037,       590,
   64.2239,       570,
   64.2441,       607,
   64.2642,       618,
   64.2844,       627,
   64.3046,       607,
   64.3247,       587,
   64.3449,       562,
   64.3651,       590,
   64.3852,       628,
   64.4054,       578,
   64.4256,       620,
   64.4457,       619,
   64.4659,       644,
   64.4861,       600,
   64.5062,       607,
   64.5264,       604,
   64.5466,       645,
   64.5668,       621,
   64.5869,       570,
   64.6071,       571,
   64.6273,       586,
   64.6474,       588,
   64.6676,       594,
   64.6878,       632,
   64.7079,       630,
   64.7281,       577,
   64.7483,       592,
   64.7684,       579,
   64.7886,       592,
   64.8088,       587,
   64.8289,       589,
   64.8491,       595,
   64.8693,       573,
   64.8894,       610,
   64.9096,       546,
   64.9298,       598,
     64.95,       647,
   64.9701,       584,
   64.9903,       589,
   65.0105,       589,
   65.0306,       599,
   65.0508,       586,
    65.071,       635,
   65.0911,       594,
   65.1113,       571,
   65.1315,       639,
   65.1516,       632,
   65.1718,       621,
    65.192,       593,
   65.2121,       600,
   65.2323,       645,
   65.2525,       612,
   65.2727,       563,
   65.2928,       568,
    65.313,       584,
   65.3332,       597,
   65.3533,       577,
   65.3735,       600,
   65.3937,       592,
   65.4138,       537,
    65.434,       583,
   65.4542,       618,
   65.4743,       589,
   65.4945,       612,
   65.5147,       573,
   65.5348,       636,
    65.555,       575,
   65.5752,       596,
   65.5953,       549,
   65.6155,       585,
   65.6357,       587,
   65.6559,       541,
    65.676,       594,
   65.6962,       570,
   65.7164,       631,
   65.7365,       604,
   65.7567,       616,
   65.7769,       560,
    65.797,       604,
   65.8172,       572,
   65.8374,       589,
   65.8575,       618,
   65.8777,       603,
   65.8979,       592,
    65.918,       598,
   65.9382,       586,
   65.9584,       617,
   65.9786,       535,
   65.9987,       648,
   66.0189,       571,
   66.0391,       629,
   66.0592,       583,
   66.0794,       634,
   66.0996,       564,
   66.1197,       582,
   66.1399,       589,
   66.1601,       572,
   66.1802,       635,
   66.2004,       569,
   66.2206,       579,
   66.2407,       618,
   66.2609,       604,
   66.2811,       590,
   66.3012,       535,
   66.3214,       600,
   66.3416,       631,
   66.3618,       595,
   66.3819,       577,
   66.4021,       584,
   66.4223,       566,
   66.4424,       621,
   66.4626,       585,
   66.4828,       555,
   66.5029,       613,
   66.5231,       596,
   66.5433,       583,
   66.5634,       607,
   66.5836,       602,
   66.6038,       598,
   66.6239,       580,
   66.6441,       598,
   66.6643,       607,
   66.6844,       580,
   66.7046,       584,
   66.7248,       608,
    66.745,       572,
   66.7651,       568,
   66.7853,       631,
   66.8055,       582,
   66.8256,       551,
   66.8458,       572,
    66.866,       622,
   66.8861,       611,
   66.9063,       570,
   66.9265,       585,
   66.9466,       533,
   66.9668,       615,
    66.987,       543,
   67.0071,       574,
   67.0273,       598,
   67.0475,       560,
   67.0677,       579,
   67.0878,       598,
    67.108,       575,
   67.1282,       590,
   67.1483,       592,
   67.1685,       577,
   67.1887,       598,
   67.2088,       545,
    67.229,       584,
   67.2492,       605,
   67.2693,       576,
   67.2895,       574,
   67.3097,       572,
   67.3298,       616,
     67.35,       590,
   67.3702,       600,
   67.3903,       608,
   67.4105,       565,
   67.4307,       578,
   67.4509,       570,
    67.471,       625,
   67.4912,       623,
   67.5114,       613,
   67.5315,       580,
   67.5517,       614,
   67.5719,       626,
    67.592,       639,
   67.6122,       616,
   67.6324,       574,
   67.6525,       608,
   67.6727,       593,
   67.6929,       580,
    67.713,       616,
   67.7332,       596,
   67.7534,       589,
   67.7735,       592,
   67.7937,       579,
   67.8139,       609,
   67.8341,       654,
   67.8542,       581,
   67.8744,       598,
   67.8946,       561,
   67.9147,       607,
   67.9349,       593,
   67.9551,       613,
   67.9752,       601,
   67.9954,       589,
   68.0156,       575,
   68.0357,       619,
   68.0559,       574,
   68.0761,       587,
   68.0962,       582,
   68.1164,       601,
   68.1366,       575,
   68.1568,       620,
   68.1769,       558,
   68.1971,       569,
   68.2173,       565,
   68.2374,       618,
   68.2576,       625,
   68.2778,       625,
   68.2979,       571,
   68.3181,       618,
   68.3383,       591,
   68.3584,       582,
   68.3786,       614,
   68.3988,       560,
   68.4189,       596,
   68.4391,       633,
   68.4593,       601,
   68.4794,       664,
   68.4996,       622,
   68.5198,       599,
     68.54,       575,
   68.5601,       564,
   68.5803,       562,
   68.6005,       589,
   68.6206,       573,
   68.6408,       615,
    68.661,       557,
   68.6811,       571,
   68.7013,       584,
   68.7215,       616,
   68.7416,       610,
   68.7618,       583,
    68.782,       567,
   68.8021,       641,
   68.8223,       596,
   68.8425,       584,
   68.8626,       597,
   68.8828,       595,
    68.903,       601,
   68.9232,       593,
   68.9433,       575,
   68.9635,       583,
   68.9837,       583,
   69.0038,       589,
    69.024,       584,
   69.0442,       617,
   69.0643,       570,
   69.0845,       577,
   69.1047,       583,
   69.1248,       603,
    69.145,       582,
   69.1652,       610,
   69.1853,       591,
   69.2055,       606,
   69.2257,       598,
   69.2459,       593,
    69.266,       596,
   69.2862,       624,
   69.3064,       618,
   69.3265,       608,
   69.3467,       585,
   69.3669,       556,
    69.387,       567,
   69.4072,       580,
   69.4274,       607,
   69.4475,       615,
   69.4677,       599,
   69.4879,       606,
    69.508,       569,
   69.5282,       608,
   69.5484,       586,
   69.5685,       585,
   69.5887,       592,
   69.6089,       572,
   69.6291,       594,
   69.6492,       598,
   69.6694,       574,
   69.6896,       613,
   69.7097,       595,
   69.7299,       567,
   69.7501,       595,
   69.7702,       597,
   69.7904,       584,
   69.8106,       631,
   69.8307,       636,
   69.8509,       568,
   69.8711,       571,
   69.8912,       596,
   69.9114,       596,
   69.9316,       559,
   69.9517,       598,
   69.9719,       584,
   69.9921,       569,
   70.0123,       571,
   70.0324,       642,
   70.0526,       604,
   70.0728,       563,
   70.0929,       607,
   70.1131,       611,
   70.1333,       566,
   70.1534,       541,
   70.1736,       580,
   70.1938,       632,
   70.2139,       580,
   70.2341,       599,
   70.2543,       636,
   70.2744,       566,
   70.2946,       595,
   70.3148,       600,
    70.335,       593,
   70.3551,       537,
   70.3753,       573,
   70.3955,       621,
   70.4156,       598,
   70.4358,       615,
    70.456,       552,
   70.4761,       564,
   70.4963,       602,
   70.5165,       550,
   70.5366,       569,
   70.5568,       617,
    70.577,       599,
   70.5971,       571,
   70.6173,       579,
   70.6375,       558,
   70.6576,       620,
   70.6778,       586,
    70.698,       605,
   70.7182,       597,
   70.7383,       602,
   70.7585,       549,
   70.7787,       576,
   70.7988,       580,
    70.819,       588,
   70.8392,       611,
   70.8593,       547,
   70.8795,       641,
   70.8997,       569,
   70.9198,       597,
     70.94,       615,
   70.9602,       608,
   70.9803,       568,
   71.0005,       587,
   71.0207,       592,
   71.0409,       596,
    71.061,       563,
   71.0812,       562,
   71.1014,       637,
   71.1215,       583,
   71.1417,       588,
   71.1619,       573,
    71.182,       596,
   71.2022,       574,
   71.2224,       596,
   71.2425,       574,
   71.2627,       571,
   71.2829,       569,
    71.303,       601,
   71.3232,       607,
   71.3434,       578,
   71.3635,       570,
   71.3837,       584,
   71.4039,       610,
   71.4241,       560,
   71.4442,       550,
   71.4644,       587,
   71.4846,       595,
   71.5047,       597,
   71.5249,       585,
   71.5451,       568,
   71.5652,       608,
   71.5854,       575,
   71.6056,       621,
   71.6257,       608,
   71.6459,       618,
   71.6661,       561,
   71.6862,       605,
   71.7064,       586,
   71.7266,       590,
   71.7467,       581,
   71.7669,       594,
   71.7871,       598,
   71.8073,       613,
   71.8274,       617,
   71.8476,       628,
   71.8678,       596,
   71.8879,       566,
   71.9081,       633,
   71.9283,       609,
   71.9484,       593,
   71.9686,       622,
   71.9888,       560,
   72.0089,       615,
   72.0291,       612,
   72.0493,       609,
   72.0694,       583,
   72.0896,       651,
   72.1098,       598,
     72.13,       603,
   72.1501,       585,
   72.1703,       576,
   72.1905,       645,
   72.2106,       635,
   72.2308,       621,
    72.251,       605,
   72.2711,       606,
   72.2913,       655,
   72.3115,       601,
   72.3316,       586,
   72.3518,       596,
    72.372,       585,
   72.3921,       623,
   72.4123,       661,
   72.4325,       638,
   72.4526,       640,
   72.4728,       573,
    72.493,       632,
   72.5132,       546,
   72.5333,       582,
   72.5535,       616,
   72.5737,       587,
   72.5938,       612,
    72.614,       615,
   72.6342,       611,
   72.6543,       616,
   72.6745,       627,
   72.6947,       621,
   72.7148,       619,
    72.735,       625,
   72.7552,       599,
   72.7753,       556,
   72.7955,       620,
   72.8157,       600,
   72.8358,       591,
    72.856,       595,
   72.8762,       598,
   72.8964,       606,
   72.9165,       667,
   72.9367,       635,
   72.9569,       594,
    72.977,       637,
   72.9972,       645,
   73.0174,       623,
   73.0375,       594,
   73.0577,       650,
   73.0779,       655,
    73.098,       593,
   73.1182,       557,
   73.1384,       643,
   73.1585,       601,
   73.1787,       634,
   73.1989,       599,
   73.2191,       631,
   73.2392,       656,
   73.2594,       648,
   73.2796,       635,
   73.2997,       629,
   73.3199,       637,
   73.3401,       647,
   73.3602,       633,
   73.3804,       641,
   73.4006,       647,
   73.4207,       642,
   73.4409,       637,
   73.4611,       660,
   73.4812,       646,
   73.5014,       637,
   73.5216,       645,
   73.5417,       682,
   73.5619,       706,
   73.5821,       745,
   73.6023,       692,
   73.6224,       731,
   73.6426,       723,
   73.6628,       693,
   73.6829,       759,
   73.7031,       739,
   73.7233,       711,
   73.7434,       740,
   73.7636,       808,
   73.7838,       760,
   73.8039,       800,
   73.8241,       824,
   73.8443,       822,
   73.8644,       822,
   73.8846,       860,
   73.9048,       867,
   73.9249,       881,
   73.9451,       936,
   73.9653,       941,
   73.9855,       948,
   74.0056,      1079,
   74.0258,      1055,
    74.046,      1122,
   74.0661,      1079,
   74.0863,      1182,
   74.1065,      1207,
   74.1266,      1267,
   74.1468,      1330,
    74.167,      1276,
   74.1871,      1375,
   74.2073,      1337,
   74.2275,      1471,
   74.2476,      1453,
   74.2678,      1480,
    74.288,      1432,
   74.3082,      1494,
   74.3283,      1415,
   74.3485,      1490,
   74.3687,      1404,
   74.3888,      1414,
    74.409,      1432,
   74.4292,      1295,
   74.4493,      1330,
   74.4695,      1275,
   74.4897,      1272,
   74.5098,      1233,
     74.53,      1188,
   74.5502,      1175,
   74.5703,      1137,
   74.5905,      1081,
   74.6107,      1058,
   74.6308,      1031,
    74.651,      1036,
   74.6712,       967,
   74.6914,       936,
   74.7115,       933,
   74.7317,       921,
   74.7519,       876,
    74.772,       876,
   74.7922,       869,
   74.8124,       798,
   74.8325,       804,
   74.8527,       784,
   74.8729,       760,
    74.893,       723,
   74.9132,       739,
   74.9334,       681,
   74.9535,       718,
   74.9737,       695,
   74.9939,       755,
    75.014,       714,
   75.0342,       702,
   75.0544,       732,
   75.0746,       685,
   75.0947,       665,
   75.1149,       693,
   75.1351,       681,
   75.1552,       659,
   75.1754,       670,
   75.1956,       662,
   75.2157,       658,
   75.2359,       636,
   75.2561,       616,
   75.2762,       625,
   75.2964,       663,
   75.3166,       635,
   75.3367,       633,
   75.3569,       643,
   75.3771,       645,
   75.3973,       627,
   75.4174,       629,
   75.4376,       640,
   75.4578,       647,
   75.4779,       683,
   75.4981,       650,
   75.5183,       635,
   75.5384,       566,
   75.5586,       601,
   75.5788,       657,
   75.5989,       628,
   75.6191,       654,
   75.6393,       577,
   75.6594,       650,
   75.6796,       624,
   75.6998,       630,
   75.7199,       601,
   75.7401,       623,
   75.7603,       623,
   75.7805,       622,
   75.8006,       664,
   75.8208,       612,
    75.841,       616,
   75.8611,       609,
   75.8813,       640,
   75.9015,       606,
   75.9216,       612,
   75.9418,       598,
    75.962,       603,
   75.9821,       592,
   76.0023,       607,
   76.0225,       559,
   76.0426,       636,
   76.0628,       601,
    76.083,       628,
   76.1032,       587,
   76.1233,       601,
   76.1435,       621,
   76.1637,       610,
   76.1838,       589,
    76.204,       612,
   76.2242,       579,
   76.2443,       604,
   76.2645,       615,
   76.2847,       612,
   76.3048,       587,
    76.325,       581,
   76.3452,       591,
   76.3653,       574,
   76.3855,       603,
   76.4057,       581,
   76.4258,       608,
    76.446,       582,
   76.4662,       568,
   76.4864,       600,
   76.5065,       607,
   76.5267,       639,
   76.5469,       621,
    76.567,       653,
   76.5872,       629,
   76.6074,       630,
   76.6275,       570,
   76.6477,       599,
   76.6679,       580,
    76.688,       631,
   76.7082,       604,
   76.7284,       564,
   76.7485,       583,
   76.7687,       591,
   76.7889,       560,
    76.809,       594,
   76.8292,       577,
   76.8494,       612,
   76.8696,       585,
   76.8897,       581,
   76.9099,       630,
   76.9301,       615,
   76.9502,       602,
   76.9704,       569,
   76.9906,       646,
   77.0107,       635,
   77.0309,       598,
   77.0511,       579,
   77.0712,       605,
   77.0914,       588,
   77.1116,       617,
   77.1317,       592,
   77.1519,       578,
   77.1721,       609,
   77.1923,       575,
   77.2124,       564,
   77.2326,       578,
   77.2528,       617,
   77.2729,       603,
   77.2931,       578,
   77.3133,       589,
   77.3334,       623,
   77.3536,       601,
   77.3738,       579,
   77.3939,       583,
   77.4141,       587,
   77.4343,       608,
   77.4544,       604,
   77.4746,       569,
   77.4948,       585,
   77.5149,       596,
   77.5351,       595,
   77.5553,       608,
   77.5755,       613,
   77.5956,       644,
   77.6158,       545,
    77.636,       580,
   77.6561,       586,
   77.6763,       576,
   77.6965,       586,
   77.7166,       545,
   77.7368,       601,
    77.757,       632,
   77.7771,       576,
   77.7973,       610,
   77.8175,       546,
   77.8376,       584,
   77.8578,       585,
    77.878,       596,
   77.8981,       595,
   77.9183,       562,
   77.9385,       556,
   77.9587,       618,
   77.9788,       532,
    77.999,       590,
