;RAW4.00
[RawHeader]
Date=11/26/2025
EstimatedTotalTime=426.6
FurtherDQLReading=0
HardwareIndicator=65519
MeasuredTotalTime=4.29378
MeasurementFlag=1
NumberOfMeasuredRanges=1
NumberOfRanges=1
Time=06:57:59

[VarInfo]
Type=USER
Flags=0
Value=Lab Manager

[VarInfo]
Type=SAMPLEID
Flags=0
Value=Commander Sample ID

[VarInfo]
Type=COMMENT
Flags=0
Value=

[VarInfo]
Type=UTF
Flags=0
Value=

[VarInfo]
Type=CREATOR
Flags=0
Value=V5Converter

[VarInfo]
Type=CREATOR_VERSION
Flags=0
Value=4.4.16.0

[HardwareConfiguration]
AbsorptionFactor=9999
ActivateAbsorber=0
Alpha1=1.5406
Alpha2=1.54439
AlphaAverage=1.54184
AlphaRatio=0.5
Analyzer=0
Anode=Cu
AntiScatteringSlit=9999
BeamOpticsFlags=0
Beta=1.39222
BetaRelativeIntensity=0
DeactivateAbsorber=0
DetectorSlit=9999
DivergenceSlit=9999
GoniometerControl=0
GoniometerDiameter=282
GoniometerModel=256
GoniometerStage=7
Monochromator=0
NearSampleSlit=9999
PrimarySollerSlit=9999
SampleChanger=0
SecondSollerSlit=9999
SynchronousAxis=0
ThinFilmAttachment=9999
WaveUnit=A

[RangeHeader]
ActuallyUsedLambda=1.54184
AdditionalDetectorMask=257
DataRecordLength=4
DelayTime=0
DisplayPlaneNumber=0
EstimatedScanTime=427
ExtraParametersMask=0
GeneratorCurrent=10
GeneratorVoltage=30
Increment=0.0201685
Increment3=0
NumberOfCompletedData=1885
NumberOfCounts=1
NumberOfDetectors=0
NumberOfDrives=3
NumberOfEncoderDrives=0
NumberOfMeasuredData=1885
NumberOfVaryingParameters=0
RangeStartTime=0
RotationSpeed=0
ScanMode=1
ScanType=Locked Coupled
SimulatedMeasConditions=0
SlitChangerIn=0
SmootingWidth=0
Start=40.0015
Steps=1885
SynchronousRotation=0
Time=33

[VarInfo]
Type=PSD_DISCRIM
Flags=0
Value=0.11;0.5

[VarInfo]
Type=OPTICS_V5
Flags=0
Value=H4sIAAAAAAAEAO1d63KjOhJ+Fda/zqmtBIPtXKaITzm2J+OaOHbFTnKmtrZcBORYZzC4AOey//d99hl2X2x1QViIS8C3JBN+TCaodWm6+2vUUkfS/nieW9IjcD3o2GcV5bBakYBtOCa0H84qS396oBxV/mhqF44NnTnwgdt25gvHBrbf0X1dQq1t78uzB88qM99ffJHlp6enw6faoeM+yGq1qsh/9i9HxgzM9QNoe75uG6AStjJfb1WRbqEH7y1wpc/BWWXFR0joAM9w4cInL/Bj4UHLsSW+3oXrLBc9NBZ6t3Pgojcb3P8FDH+o+7OzitwBj9AAMt+CrxUfl1Lblu55QRehTORzoM8XqLDt2L4ObeBy/coBc6yHluEvdYtxoR6o1ePT02O5h8TkLue4tzhrTW2EZGjqqBswQr3oFvyXjl+9OdUtD2hyGln7c259hcAyrwHqHhq4EDFpA/KbJ8lNjfKD1ToCFipvdm00JDA1OUbR6Btwou9Ab2HpL824AjQ5tXK8m+bF4OrHhPzodEft64TGrBVWDOsoPhpP1bBWhrxWvISy1r0hIUP+4r8skMLHrm78xG8sGODQhXPdfSHkZBMMakgD9GxISBvSeHkPOIFIQeOidilHx44baRI9r5mSRmyEDSxUYBJZ3blu/xy4JnCvAfYzAL0wsdX3b8s5NVnMwIfj6+8T9KPV/l7IxHm5Jhp5z0OvBh9BE+kGCS98DAk920dCZMIVSikeHA9SJulgmhwp1bAq2ZMXfZT4B2LSAxc+QFu3ogSlwl6OWi7Ssb/0moPwnSLFGmsYPPedJdIj0qJQrgWE0MJ5JCOdEXICmjFtjmnJUA7J0tRxpRHQLUBtYA3AytxYcejGiMm4JZa46kmmLG0LrhEWBa3xcus++8A2MZDfDYZpCWdMkQKtj5nwHfcltGVFk+OFGseMJxH2qHoYWND7cnJosmJN5ku1uCnh1+H65qyTKx3Y545jAR1NEG5s6BPpdiDSG56bXcI59IlYwiKvWdVk7knrgKm+tPxb3VoCboigVyQ96CPXTshnFewlKri/oQta5l9LD8GnYEuZYx67mbHTJoqe6ZblPK0cjVCOarZnwPgJzFUVVqC1ESPOHKsWvx33pNH5Zl7erhEyxkg2xVq1lr7TdoHug6HrLIDrvzAWEyiR9/eIRfdMhLKr5fweuE21rslCEdaQRS08UPF//xMyUSUc9B0TNG8Quqbos4xMnTwz90Y+PzEHluy7tuWt5HgP/ND5vNXOHBXjLvaN2aNbYuh5A79Evm3IJvErCL6JJ23LP418rD3OPSHRTOHDEjnla/gw85sIdabECnU0BoKwUKWYS+vrz5fAfvBnTbXRwKJhj2nOjrJISkNktZevObqMVm/q5DL4SnFwGS02cm5pFninPwKqkpa1mOmKYIUieVuWOJh2nCVqyWzxf//ehzWm2Nxw9uJBQ7dIeQJnTA/KYaNePXrNFtfo7ca2MPfItOjcf/WMZelYS+paugfVBtErK9H60Ibz5bx5oBwenx4fndaUWv3kSK0pjePu32vVE4S4oAZGIvklvWZQ4W0Rs4b0UpC0Rk/7QJiajTD10yOsXjvdJsRYdyXGNhLfFkDGuto1yh6Bqz+IoV6M/ulxppzUt4kz1l2Js43EtwWcsa52jLNz4OupIMPET46w2qmqqttD2Kq7EmEbiW9jhK262jHCrvGaRirECHVXGHuvCFutth02NsJWrKMSVWsKbh08xTrZCZK+OsbSG7gQ2D5ZHRSgJJK3tspG1g4H057tH9XfH6CibEVXr/OjKbkXhfRCBYDfqOeDOWLs0nmABl3VvJn0rm5bl73OpP2tN9TkFYkJfAye/WbPftQtiMQzg4uVjCJaIvW07+CFjI1lEf6uyTEWsnm67F2lsnIJbSARW0kbWtlk6OEgY+yhA20/e3B1k8GZLoaD0auqCHeKD6S58wgk35HmwJjpNrYKCTmTxd/SeKxl8/ienF2WXefzdFk9bOTm6N5Lz546UqiqhAVciZbr3FOQY3BWIVUkVBrdJr+ZtC6H31rRcrGRhEeyyEjkXXKxo0bYURPZUVPYUbPYUQuzEywL8PxEyoQBQloib5PW7UUWe0HrokySmCrg8D78PeybkkWGzrvjVjIvuH4+FiIbUQEDqBXeyxN46LJSkY3uZbffvRqnSMV2TCAFbaXVSDlkQmfBvNq4EkHsASVZZdetcW+QpTTSOp+8YlOLgL9pYnk4ToQicvl10J4MrpMZJONJkeZyfMe6Ed+xvgA2skTfcYU8TFacvPmcsQFLZ8dr7r82tXQiP3O7dSw/voYXlO4q5vl5u6WEjcypLxqFfRNqVSHyCL4FKaFHctihVBMCjFp1f7FErbF+MBEXRsEvZLo55TW19tJ1sT+LmlpQuitTm7f2YWpolHD6sQ1TaySFsh/E0uKy2LulDZ0nkgHOmxQp25WV3aUEnW+xcHMnRJr5lluqhymm+EkWW+4491hde7Ul3ssWbV9+7YtfJA0UTQyNGXBfyVbbPA8ud74bklUw60j9YgWfilQ/I4dzraYmBmuZ2QhiKJW9qxqLdLI3h6IxR/YytzAXT1vD42MIIXVJnC4nR8cylyaJ7OZRhxZeJcCPHu2eWH2ZQFkmUJYJlGUCZZlA+fE2xcsEyvezJV4mUP6aCCsTKN8TxsoEyl8VZ2UC5XvCWZlA+ashrEygfE8IKxMoywTKMoGyTKAsEyjLBMoygbJMoCwTKMsEyjKBskygLBMoywTKMoGyTKAsEyjLBMoygbJMoHzr+KNMoCwTKD9tAiXLkUS/iumT7KzT+Cmg4tm7GScqd+cL/4UkG4arGcVOT+72h4PRhP4scnoyGTg0xcTzk2U+BzLzcGMl7XBjde+HGw8WbefceR5MR45lATfhiGNKyDjkmKsg/WbotmTQQ8ElNJZEifQE7N/XgX9k+LhXSSBnuYaE6hunwkb7FPSZfOxxRGTIPPKL8PePe2KymphYK0bAR+scevtxXAin6Q2diJrmRGpv50S+wmdgEkNlcw/RmVjQz3IliCz1U2CAaRv4kdXICV5EJGb6ELHy5h6E61FQZYr/YA2o98gntQ/sOmq5XMfxeudlE7OmVzSsTJpYMhZe0hcRy1SR/jGf/zPDjH/DR/7fA2QfErQ9hAVgol98R9I5hWWaMq5mhBds4KeJUp0oaQYcIb5mwIVtN52ZmPP5qH/5US30lx930PRnYm4HLtvZktP8/WxBxzgL44DNsuvjPeVdZqh+7nWGuODWWWeI97KTtI5vABumgB1a+LnBszXslNBZz+i3gpzt3wSirjOzGenzhQXuZgBYY/QC/KUgIkkjH65UJ0ChmfamMj+F+lCxGJtFbxiJ1dIisfpGkRjhMR6HvT9h3thLD5hkeHHgLInKwm1g17oJl16CldWVYB+fXrg3mE494KdZfesZevz3Iay2B1ceYybnbh1ywVU1LSlVPTypn6qNRkNN8LvHjcOTRv24dqQqvK8VhNAM7mETbitc+w7DEUCRgJl9i2FYh7v9roNCXwNnMmzhLkORh4SYKLFGsfsMwz42ifVFRj70nYaF9FrM/4zwzYaj4jcbRuW787sNw+F2cbvhyRss3uHlOks3wMyxzMQtgMsX+xm8pBxzcfnj6s/ujy654bCjSsOZ7olX4OYEsRyOEwezQMpa3mDWKOO8X3k4Wj2jProvYAvX6KYzLmrzl7v28CTPUlxNiU9Yi8wL0ecUu0XdWrmWfniNJk2pxn6HJHazGl4xZ9PpjyfkXwFHw4ba6R6gstmscZebgP09bgIKCIswkLYN2N/zNmAmj6JSs3YC+59rJ1Cp53Ii1c+wFVhGSkUjpbRAqXF4dHrSUJRqPWmBqqEcHldP68dqfQeB0sontAHGieA9hcKI4+SmzLSadMAw70kjnLfkkW8dVkPLMIDnOS4E3hoRE+Mi7j2jlLwRUvyl1/ekrIcPHRqtqcpiLudicNWekB9FHA7lZ+eh0Ri4qHQnkdHp3mdFwxkkShPAfO0EGXBRYgTUqKlErdE1Wb0CGJXZGHSdNqGDKCsJ1TJnP6vqMuJUZpxuDuAUxgVFpsREEgUYMFu+rxszPNBZ5WDPRwluc5pzmitr4SQ+y+l5TBQhKMMCjfMcZLfIWj48ALPjYkzSv8ZE3eHvWs9sIu2S3oNHTCEVRwtgwGnwt6KsUpyC4BLvvcgEK46DYs5u+K03mpAfRZxdFKHbnGBVi0yvQisOP5lEYfRDEPwf22IqXU7pckqXI7qcECvsd+8VLsZPznhGTjB6jZVIzZz8ZA+dc9yig6ZEJvFifFQxXo8YAd9H0PIkfi6GHAXNPKxILbzB7vVR6AbplI5NtLGOuVT/5i2e1Rn4EFu+VFtBkewhB6uqmiyUa3yqI/WAkWUTj/6JxSqYYK6D6Pv/u9RXv2COAAA=

[PSD]
ActualTwoTheta=9999
FirstUsedChannel=0
FixedPSD=0
PSDOpening=4.99171
PSDType=5

[Drive]
DriveFlags=1
DriveName=2Theta
DriveNumber=2
DriveOffset=0
OffsetIndex=0
OscillationAmplitude=0
OscillationSpeed=0
StartPosition=40.0015

[Drive]
DriveFlags=1
DriveName=Theta
DriveNumber=1
DriveOffset=0
OffsetIndex=0
OscillationAmplitude=0
OscillationSpeed=0
StartPosition=20.0007

[Drive]
DriveFlags=1
DriveName=Phi
DriveNumber=3
DriveOffset=0
OffsetIndex=0
OscillationAmplitude=0
OscillationSpeed=0
StartPosition=0

[Data]
     Angle,       PSD,
   40.0015,       624,
   40.0217,       619,
   40.0418,       648,
    40.062,       640,
   40.0822,       631,
   40.1023,       630,
   40.1225,       645,
   40.1427,       632,
   40.1628,       677,
    40.183,       618,
   40.2032,       662,
   40.2233,       648,
   40.2435,       668,
   40.2637,       677,
   40.2838,       648,
    40.304,       623,
   40.3242,       612,
   40.3444,       671,
   40.3645,       657,
   40.3847,       634,
   40.4049,       651,
    40.425,       643,
   40.4452,       649,
   40.4654,       645,
   40.4855,       613,
   40.5057,       685,
   40.5259,       650,
    40.546,       621,
   40.5662,       643,
   40.5864,       631,
   40.6065,       614,
   40.6267,       619,
   40.6469,       685,
   40.6671,       650,
   40.6872,       655,
   40.7074,       660,
   40.7276,       655,
   40.7477,       664,
   40.7679,       604,
   40.7881,       614,
   40.8082,       659,
   40.8284,       631,
   40.8486,       624,
   40.8687,       637,
   40.8889,       586,
   40.9091,       608,
   40.9292,       673,
   40.9494,       655,
   40.9696,       680,
   40.9897,       669,
   41.0099,       659,
   41.0301,       630,
   41.0503,       614,
   41.0704,       647,
   41.0906,       675,
   41.1108,       667,
   41.1309,       652,
   41.1511,       626,
   41.1713,       655,
   41.1914,       637,
   41.2116,       626,
   41.2318,       645,
   41.2519,       678,
   41.2721,       618,
   41.2923,       656,
   41.3124,       569,
   41.3326,       648,
   41.3528,       636,
   41.3729,       620,
   41.3931,       579,
   41.4133,       670,
   41.4335,       632,
   41.4536,       628,
   41.4738,       602,
    41.494,       636,
   41.5141,       676,
   41.5343,       696,
   41.5545,       695,
   41.5746,       692,
   41.5948,       679,
    41.615,       669,
   41.6351,       669,
   41.6553,       630,
   41.6755,       664,
   41.6956,       626,
   41.7158,       699,
    41.736,       665,
   41.7562,       646,
   41.7763,       673,
   41.7965,       677,
   41.8167,       762,
   41.8368,       736,
    41.857,       773,
   41.8772,       780,
   41.8973,       853,
   41.9175,       749,
   41.9377,       764,
   41.9578,       771,
    41.978,       736,
   41.9982,       797,
   42.0183,       731,
   42.0385,       792,
   42.0587,       761,
   42.0788,       719,
    42.099,       792,
   42.1192,       799,
   42.1394,       767,
   42.1595,       731,
   42.1797,       828,
   42.1999,       784,
     42.22,       752,
   42.2402,       769,
   42.2604,       800,
   42.2805,       710,
   42.3007,       750,
   42.3209,       820,
    42.341,       787,
   42.3612,       845,
   42.3814,       801,
   42.4015,       832,
   42.4217,       821,
   42.4419,       834,
    42.462,       779,
   42.4822,       819,
   42.5024,       783,
   42.5226,       823,
   42.5427,       789,
   42.5629,       805,
   42.5831,       850,
   42.6032,       815,
   42.6234,       801,
   42.6436,       772,
   42.6637,       879,
   42.6839,       817,
   42.7041,       828,
   42.7242,       803,
   42.7444,       870,
   42.7646,       831,
   42.7847,       867,
   42.8049,       881,
   42.8251,       879,
   42.8453,       919,
   42.8654,       946,
   42.8856,      1024,
   42.9058,       950,
   42.9259,      1049,
   42.9461,      1173,
   42.9663,      1155,
   42.9864,      1158,
   43.0066,      1275,
   43.0268,      1334,
   43.0469,      1365,
   43.0671,      1441,
   43.0873,      1580,
   43.1074,      1715,
   43.1276,      1853,
   43.1478,      2021,
   43.1679,      2273,
   43.1881,      2402,
   43.2083,      2557,
   43.2285,      2915,
   43.2486,      3415,
   43.2688,      4421,
    43.289,      6486,
   43.3091,     11846,
   43.3293,     25728,
   43.3495,     48159,
   43.3696,     57891,
   43.3898,     39577,
     43.41,     19399,
   43.4301,     14516,
   43.4503,     20538,
   43.4705,     29601,
   43.4906,     28112,
   43.5108,     15998,
    43.531,      7410,
   43.5511,      4381,
   43.5713,      3257,
   43.5915,      2613,
   43.6117,      2296,
   43.6318,      2135,
    43.652,      1895,
   43.6722,      1794,
   43.6923,      1634,
   43.7125,      1477,
   43.7327,      1394,
   43.7528,      1297,
    43.773,      1181,
   43.7932,      1091,
   43.8133,      1141,
   43.8335,      1038,
   43.8537,      1063,
   43.8738,       969,
    43.894,       938,
   43.9142,       946,
   43.9344,       984,
   43.9545,       960,
   43.9747,       880,
   43.9949,       856,
    44.015,       893,
   44.0352,       898,
   44.0554,       810,
   44.0755,       869,
   44.0957,       792,
   44.1159,       802,
    44.136,       828,
   44.1562,       866,
   44.1764,       840,
   44.1965,       825,
   44.2167,       817,
   44.2369,       789,
    44.257,       768,
   44.2772,       826,
   44.2974,       809,
   44.3176,       770,
   44.3377,       800,
   44.3579,       738,
   44.3781,       774,
   44.3982,       779,
   44.4184,       778,
   44.4386,       771,
   44.4587,       841,
   44.4789,       685,
   44.4991,       774,
   44.5192,       797,
   44.5394,       749,
   44.5596,       751,
   44.5797,       788,
   44.5999,       740,
   44.6201,       766,
   44.6402,       771,
   44.6604,       748,
   44.6806,       763,
   44.7008,       731,
   44.7209,       800,
   44.7411,       728,
   44.7613,       772,
   44.7814,       741,
   44.8016,       755,
   44.8218,       686,
   44.8419,       723,
   44.8621,       725,
   44.8823,       731,
   44.9024,       788,
   44.9226,       735,
   44.9428,       734,
   44.9629,       754,
   44.9831,       712,
   45.0033,       748,
   45.0235,       711,
   45.0436,       713,
   45.0638,       737,
    45.084,       683,
   45.1041,       760,
   45.1243,       729,
   45.1445,       744,
   45.1646,       740,
   45.1848,       718,
    45.205,       735,
   45.2251,       773,
   45.2453,       773,
   45.2655,       709,
   45.2856,       782,
   45.3058,       768,
    45.326,       760,
   45.3461,       748,
   45.3663,       738,
   45.3865,       714,
   45.4067,       729,
   45.4268,       760,
    45.447,       689,
   45.4672,       677,
   45.4873,       755,
   45.5075,       735,
   45.5277,       750,
   45.5478,       704,
    45.568,       794,
   45.5882,       704,
   45.6083,       716,
   45.6285,       719,
   45.6487,       712,
   45.6688,       744,
    45.689,       744,
   45.7092,       673,
   45.7294,       695,
   45.7495,       766,
   45.7697,       724,
   45.7899,       723,
     45.81,       752,
   45.8302,       707,
   45.8504,       702,
   45.8705,       721,
   45.8907,       701,
   45.9109,       712,
    45.931,       709,
   45.9512,       723,
   45.9714,       727,
   45.9915,       682,
   46.0117,       707,
   46.0319,       665,
    46.052,       715,
   46.0722,       714,
   46.0924,       679,
   46.1126,       707,
   46.1327,       699,
   46.1529,       725,
   46.1731,       695,
   46.1932,       676,
   46.2134,       729,
   46.2336,       723,
   46.2537,       698,
   46.2739,       652,
   46.2941,       699,
   46.3142,       702,
   46.3344,       699,
   46.3546,       692,
   46.3747,       693,
   46.3949,       722,
   46.4151,       701,
   46.4352,       690,
   46.4554,       701,
   46.4756,       703,
   46.4958,       665,
   46.5159,       653,
   46.5361,       662,
   46.5563,       699,
   46.5764,       689,
   46.5966,       675,
   46.6168,       751,
   46.6369,       731,
   46.6571,       673,
   46.6773,       692,
   46.6974,       666,
   46.7176,       688,
   46.7378,       679,
   46.7579,       697,
   46.7781,       707,
   46.7983,       705,
   46.8185,       695,
   46.8386,       705,
   46.8588,       676,
    46.879,       725,
   46.8991,       706,
   46.9193,       684,
   46.9395,       690,
   46.9596,       675,
   46.9798,       663,
        47,       653,
   47.0201,       662,
   47.0403,       655,
   47.0605,       686,
   47.0806,       703,
   47.1008,       689,
    47.121,       710,
   47.1411,       643,
   47.1613,       694,
   47.1815,       650,
   47.2017,       727,
   47.2218,       647,
    47.242,       686,
   47.2622,       701,
   47.2823,       705,
   47.3025,       702,
   47.3227,       706,
   47.3428,       685,
    47.363,       684,
   47.3832,       659,
   47.4033,       694,
   47.4235,       692,
   47.4437,       685,
   47.4638,       696,
    47.484,       645,
   47.5042,       695,
   47.5243,       687,
   47.5445,       713,
   47.5647,       686,
   47.5849,       664,
    47.605,       709,
   47.6252,       700,
   47.6454,       680,
   47.6655,       691,
   47.6857,       671,
   47.7059,       717,
    47.726,       697,
   47.7462,       657,
   47.7664,       641,
   47.7865,       643,
   47.8067,       689,
   47.8269,       695,
    47.847,       713,
   47.8672,       694,
   47.8874,       721,
   47.9076,       650,
   47.9277,       669,
   47.9479,       715,
   47.9681,       710,
   47.9882,       680,
   48.0084,       704,
   48.0286,       680,
   48.0487,       696,
   48.0689,       649,
   48.0891,       687,
   48.1092,       700,
   48.1294,       665,
   48.1496,       698,
   48.1697,       657,
   48.1899,       678,
   48.2101,       689,
   48.2302,       679,
   48.2504,       629,
   48.2706,       706,
   48.2908,       656,
   48.3109,       664,
   48.3311,       698,
   48.3513,       707,
   48.3714,       713,
   48.3916,       734,
   48.4118,       694,
   48.4319,       679,
   48.4521,       684,
   48.4723,       651,
   48.4924,       686,
   48.5126,       683,
   48.5328,       683,
   48.5529,       720,
   48.5731,       700,
   48.5933,       680,
   48.6134,       708,
   48.6336,       670,
   48.6538,       662,
    48.674,       688,
   48.6941,       742,
   48.7143,       720,
   48.7345,       727,
   48.7546,       686,
   48.7748,       652,
    48.795,       734,
   48.8151,       704,
   48.8353,       688,
   48.8555,       728,
   48.8756,       704,
   48.8958,       664,
    48.916,       723,
   48.9361,       683,
   48.9563,       644,
   48.9765,       697,
   48.9967,       693,
   49.0168,       740,
    49.037,       673,
   49.0572,       707,
   49.0773,       702,
   49.0975,       693,
   49.1177,       682,
   49.1378,       709,
    49.158,       750,
   49.1782,       710,
   49.1983,       683,
   49.2185,       664,
   49.2387,       727,
   49.2588,       708,
    49.279,       695,
   49.2992,       720,
   49.3193,       701,
   49.3395,       714,
   49.3597,       694,
   49.3799,       729,
      49.4,       762,
   49.4202,       714,
   49.4404,       773,
   49.4605,       677,
   49.4807,       722,
   49.5009,       716,
    49.521,       692,
   49.5412,       757,
   49.5614,       741,
   49.5815,       686,
   49.6017,       731,
   49.6219,       690,
    49.642,       724,
   49.6622,       725,
   49.6824,       716,
   49.7025,       672,
   49.7227,       800,
   49.7429,       728,
   49.7631,       728,
   49.7832,       790,
   49.8034,       716,
   49.8236,       752,
   49.8437,       734,
   49.8639,       758,
   49.8841,       695,
   49.9042,       731,
   49.9244,       753,
   49.9446,       774,
   49.9647,       815,
   49.9849,       795,
   50.0051,       803,
   50.0252,       818,
   50.0454,       852,
   50.0656,       868,
   50.0858,       886,
   50.1059,       875,
   50.1261,       958,
   50.1463,       983,
   50.1664,       982,
   50.1866,      1019,
   50.2068,      1007,
   50.2269,      1136,
   50.2471,      1214,
   50.2673,      1258,
   50.2874,      1268,
   50.3076,      1349,
   50.3278,      1475,
   50.3479,      1555,
   50.3681,      1772,
   50.3883,      2066,
   50.4084,      2673,
   50.4286,      4012,
   50.4488,      6469,
    50.469,     10095,
   50.4891,     13506,
   50.5093,     13116,
   50.5295,      9382,
   50.5496,      6169,
   50.5698,      5168,
     50.59,      5450,
   50.6101,      6996,
   50.6303,      7647,
   50.6505,      6724,
   50.6706,      4567,
   50.6908,      2964,
    50.711,      2048,
   50.7311,      1702,
   50.7513,      1481,
   50.7715,      1362,
   50.7917,      1195,
   50.8118,      1189,
    50.832,      1190,
   50.8522,       965,
   50.8723,      1012,
   50.8925,       913,
   50.9127,       917,
   50.9328,       942,
    50.953,       876,
   50.9732,       885,
   50.9933,       785,
   51.0135,       847,
   51.0337,       756,
   51.0538,       749,
    51.074,       775,
   51.0942,       739,
   51.1143,       776,
   51.1345,       741,
   51.1547,       752,
   51.1749,       731,
    51.195,       743,
   51.2152,       752,
   51.2354,       723,
   51.2555,       730,
   51.2757,       731,
   51.2959,       668,
    51.316,       698,
   51.3362,       694,
   51.3564,       683,
   51.3765,       724,
   51.3967,       698,
   51.4169,       720,
    51.437,       779,
   51.4572,       706,
   51.4774,       709,
   51.4975,       693,
   51.5177,       665,
   51.5379,       701,
   51.5581,       727,
   51.5782,       695,
   51.5984,       718,
   51.6186,       667,
   51.6387,       711,
   51.6589,       737,
   51.6791,       698,
   51.6992,       732,
   51.7194,       743,
   51.7396,       689,
   51.7597,       717,
   51.7799,       683,
   51.8001,       689,
   51.8202,       698,
   51.8404,       683,
   51.8606,       660,
   51.8808,       717,
   51.9009,       679,
   51.9211,       688,
   51.9413,       672,
   51.9614,       623,
   51.9816,       688,
   52.0018,       666,
   52.0219,       664,
   52.0421,       668,
   52.0623,       731,
   52.0824,       654,
   52.1026,       663,
   52.1228,       658,
   52.1429,       634,
   52.1631,       655,
   52.1833,       635,
   52.2034,       674,
   52.2236,       659,
   52.2438,       632,
    52.264,       654,
   52.2841,       680,
   52.3043,       640,
   52.3245,       684,
   52.3446,       633,
   52.3648,       666,
    52.385,       704,
   52.4051,       700,
   52.4253,       688,
   52.4455,       632,
   52.4656,       628,
   52.4858,       641,
    52.506,       654,
   52.5261,       611,
   52.5463,       690,
   52.5665,       662,
   52.5866,       695,
   52.6068,       680,
    52.627,       680,
   52.6472,       660,
   52.6673,       630,
   52.6875,       667,
   52.7077,       682,
   52.7278,       630,
    52.748,       663,
   52.7682,       658,
   52.7883,       651,
   52.8085,       679,
   52.8287,       625,
   52.8488,       669,
    52.869,       674,
   52.8892,       665,
   52.9093,       654,
   52.9295,       637,
   52.9497,       634,
   52.9699,       658,
     52.99,       646,
   53.0102,       655,
   53.0304,       612,
   53.0505,       624,
   53.0707,       662,
   53.0909,       689,
    53.111,       693,
   53.1312,       651,
   53.1514,       681,
   53.1715,       640,
   53.1917,       676,
   53.2119,       657,
    53.232,       651,
   53.2522,       692,
   53.2724,       631,
   53.2925,       663,
   53.3127,       677,
   53.3329,       642,
   53.3531,       705,
   53.3732,       650,
   53.3934,       675,
   53.4136,       660,
   53.4337,       674,
   53.4539,       634,
   53.4741,       644,
   53.4942,       622,
   53.5144,       628,
   53.5346,       647,
   53.5547,       666,
   53.5749,       648,
   53.5951,       662,
   53.6152,       642,
   53.6354,       652,
   53.6556,       685,
   53.6757,       665,
   53.6959,       622,
   53.7161,       662,
   53.7363,       677,
   53.7564,       691,
   53.7766,       682,
   53.7968,       649,
   53.8169,       667,
   53.8371,       709,
   53.8573,       631,
   53.8774,       659,
   53.8976,       648,
   53.9178,       639,
   53.9379,       629,
   53.9581,       629,
   53.9783,       652,
   53.9984,       667,
   54.0186,       677,
   54.0388,       652,
    54.059,       638,
   54.0791,       645,
   54.0993,       720,
   54.1195,       678,
   54.1396,       629,
   54.1598,       649,
     54.18,       619,
   54.2001,       648,
   54.2203,       673,
   54.2405,       644,
   54.2606,       651,
   54.2808,       637,
    54.301,       634,
   54.3211,       603,
   54.3413,       679,
   54.3615,       629,
   54.3816,       666,
   54.4018,       676,
    54.422,       627,
   54.4422,       640,
   54.4623,       630,
   54.4825,       669,
   54.5027,       671,
   54.5228,       660,
    54.543,       659,
   54.5632,       610,
   54.5833,       632,
   54.6035,       654,
   54.6237,       645,
   54.6438,       615,
    54.664,       644,
   54.6842,       656,
   54.7043,       663,
   54.7245,       649,
   54.7447,       637,
   54.7648,       612,
    54.785,       648,
   54.8052,       629,
   54.8254,       664,
   54.8455,       607,
   54.8657,       612,
   54.8859,       641,
    54.906,       645,
   54.9262,       620,
   54.9464,       653,
   54.9665,       689,
   54.9867,       676,
   55.0069,       612,
    55.027,       633,
   55.0472,       660,
   55.0674,       649,
   55.0875,       588,
   55.1077,       629,
   55.1279,       641,
   55.1481,       633,
   55.1682,       627,
   55.1884,       637,
   55.2086,       663,
   55.2287,       618,
   55.2489,       662,
   55.2691,       581,
   55.2892,       645,
   55.3094,       638,
   55.3296,       667,
   55.3497,       640,
   55.3699,       622,
   55.3901,       633,
   55.4102,       664,
   55.4304,       652,
   55.4506,       661,
   55.4707,       658,
   55.4909,       618,
   55.5111,       637,
   55.5313,       642,
   55.5514,       655,
   55.5716,       650,
   55.5918,       616,
   55.6119,       686,
   55.6321,       671,
   55.6523,       627,
   55.6724,       690,
   55.6926,       615,
   55.7128,       654,
   55.7329,       626,
   55.7531,       669,
   55.7733,       654,
   55.7934,       604,
   55.8136,       625,
   55.8338,       628,
    55.854,       663,
   55.8741,       634,
   55.8943,       623,
   55.9145,       644,
   55.9346,       638,
   55.9548,       654,
    55.975,       654,
   55.9951,       635,
   56.0153,       626,
   56.0355,       601,
   56.0556,       615,
   56.0758,       639,
    56.096,       625,
   56.1161,       643,
   56.1363,       642,
   56.1565,       651,
   56.1766,       598,
   56.1968,       609,
    56.217,       613,
   56.2372,       583,
   56.2573,       596,
   56.2775,       617,
   56.2977,       635,
   56.3178,       647,
    56.338,       663,
   56.3582,       618,
   56.3783,       619,
   56.3985,       621,
   56.4187,       648,
   56.4388,       638,
    56.459,       657,
   56.4792,       658,
   56.4993,       626,
   56.5195,       606,
   56.5397,       600,
   56.5598,       611,
     56.58,       584,
   56.6002,       603,
   56.6204,       600,
   56.6405,       647,
   56.6607,       654,
   56.6809,       625,
    56.701,       632,
   56.7212,       639,
   56.7414,       623,
   56.7615,       626,
   56.7817,       607,
   56.8019,       615,
    56.822,       621,
   56.8422,       618,
   56.8624,       651,
   56.8825,       583,
   56.9027,       603,
   56.9229,       611,
   56.9431,       587,
   56.9632,       652,
   56.9834,       596,
   57.0036,       588,
   57.0237,       633,
   57.0439,       659,
   57.0641,       651,
   57.0842,       627,
   57.1044,       585,
   57.1246,       617,
   57.1447,       627,
   57.1649,       660,
   57.1851,       589,
   57.2052,       608,
   57.2254,       640,
   57.2456,       597,
   57.2657,       644,
   57.2859,       607,
   57.3061,       616,
   57.3263,       660,
   57.3464,       580,
   57.3666,       644,
   57.3868,       585,
   57.4069,       622,
   57.4271,       639,
   57.4473,       586,
   57.4674,       625,
   57.4876,       632,
   57.5078,       625,
   57.5279,       610,
   57.5481,       600,
   57.5683,       620,
   57.5884,       612,
   57.6086,       617,
   57.6288,       604,
   57.6489,       661,
   57.6691,       648,
   57.6893,       619,
   57.7095,       654,
   57.7296,       630,
   57.7498,       621,
     57.77,       614,
   57.7901,       621,
   57.8103,       683,
   57.8305,       619,
   57.8506,       605,
   57.8708,       661,
    57.891,       653,
   57.9111,       582,
   57.9313,       647,
   57.9515,       630,
   57.9716,       635,
   57.9918,       647,
    58.012,       636,
   58.0322,       642,
   58.0523,       662,
   58.0725,       639,
   58.0927,       595,
   58.1128,       610,
    58.133,       632,
   58.1532,       631,
   58.1733,       634,
   58.1935,       614,
   58.2137,       638,
   58.2338,       621,
    58.254,       584,
   58.2742,       595,
   58.2943,       601,
   58.3145,       623,
   58.3347,       667,
   58.3548,       627,
    58.375,       673,
   58.3952,       625,
   58.4154,       594,
   58.4355,       581,
   58.4557,       625,
   58.4759,       599,
    58.496,       607,
   58.5162,       644,
   58.5364,       612,
   58.5565,       607,
   58.5767,       605,
   58.5969,       612,
    58.617,       628,
   58.6372,       611,
   58.6574,       648,
   58.6775,       655,
   58.6977,       655,
   58.7179,       611,
    58.738,       646,
   58.7582,       636,
   58.7784,       581,
   58.7986,       668,
   58.8187,       604,
   58.8389,       580,
   58.8591,       632,
   58.8792,       596,
   58.8994,       631,
   58.9196,       669,
   58.9397,       617,
   58.9599,       622,
   58.9801,       620,
   59.0002,       617,
   59.0204,       619,
   59.0406,       664,
   59.0607,       613,
   59.0809,       676,
   59.1011,       660,
   59.1213,       628,
   59.1414,       603,
   59.1616,       646,
   59.1818,       603,
   59.2019,       650,
   59.2221,       597,
   59.2423,       648,
   59.2624,       594,
   59.2826,       642,
   59.3028,       596,
   59.3229,       603,
   59.3431,       623,
   59.3633,       621,
   59.3834,       622,
   59.4036,       592,
   59.4238,       652,
   59.4439,       638,
   59.4641,       648,
   59.4843,       637,
   59.5045,       599,
   59.5246,       621,
   59.5448,       636,
    59.565,       610,
   59.5851,       596,
   59.6053,       599,
   59.6255,       649,
   59.6456,       597,
   59.6658,       608,
    59.686,       611,
   59.7061,       590,
   59.7263,       636,
   59.7465,       637,
   59.7666,       614,
   59.7868,       594,
    59.807,       619,
   59.8271,       585,
   59.8473,       663,
   59.8675,       638,
   59.8877,       582,
   59.9078,       595,
    59.928,       637,
   59.9482,       631,
   59.9683,       632,
   59.9885,       636,
   60.0087,       641,
   60.0288,       624,
    60.049,       600,
   60.0692,       617,
   60.0893,       597,
   60.1095,       610,
   60.1297,       655,
   60.1498,       632,
     60.17,       592,
   60.1902,       608,
   60.2104,       623,
   60.2305,       609,
   60.2507,       639,
   60.2709,       618,
    60.291,       636,
   60.3112,       635,
   60.3314,       615,
   60.3515,       633,
   60.3717,       648,
   60.3919,       623,
    60.412,       638,
   60.4322,       614,
   60.4524,       644,
   60.4725,       594,
   60.4927,       630,
   60.5129,       623,
    60.533,       625,
   60.5532,       592,
   60.5734,       607,
   60.5936,       607,
   60.6137,       639,
   60.6339,       601,
   60.6541,       593,
   60.6742,       588,
   60.6944,       605,
   60.7146,       621,
   60.7347,       609,
   60.7549,       592,
   60.7751,       638,
   60.7952,       629,
   60.8154,       595,
   60.8356,       604,
   60.8557,       602,
   60.8759,       646,
   60.8961,       620,
   60.9163,       583,
   60.9364,       642,
   60.9566,       650,
   60.9768,       620,
   60.9969,       641,
   61.0171,       611,
   61.0373,       632,
   61.0574,       644,
   61.0776,       654,
   61.0978,       655,
   61.1179,       621,
   61.1381,       656,
   61.1583,       586,
   61.1784,       628,
   61.1986,       639,
   61.2188,       577,
   61.2389,       619,
   61.2591,       615,
   61.2793,       580,
   61.2995,       631,
   61.3196,       636,
   61.3398,       672,
     61.36,       576,
   61.3801,       586,
   61.4003,       643,
   61.4205,       648,
   61.4406,       594,
   61.4608,       638,
    61.481,       671,
   61.5011,       667,
   61.5213,       599,
   61.5415,       649,
   61.5616,       641,
   61.5818,       582,
    61.602,       633,
   61.6221,       623,
   61.6423,       579,
   61.6625,       589,
   61.6827,       630,
   61.7028,       627,
    61.723,       606,
   61.7432,       644,
   61.7633,       611,
   61.7835,       578,
   61.8037,       619,
   61.8238,       624,
    61.844,       635,
   61.8642,       654,
   61.8843,       582,
   61.9045,       648,
   61.9247,       594,
   61.9448,       675,
    61.965,       633,
   61.9852,       624,
   62.0054,       615,
   62.0255,       599,
   62.0457,       566,
   62.0659,       625,
    62.086,       592,
   62.1062,       618,
   62.1264,       622,
   62.1465,       598,
   62.1667,       634,
   62.1869,       610,
    62.207,       607,
   62.2272,       645,
   62.2474,       615,
   62.2675,       584,
   62.2877,       654,
   62.3079,       603,
    62.328,       632,
   62.3482,       585,
   62.3684,       574,
   62.3886,       622,
   62.4087,       633,
   62.4289,       599,
   62.4491,       649,
   62.4692,       609,
   62.4894,       577,
   62.5096,       644,
   62.5297,       599,
   62.5499,       575,
   62.5701,       563,
   62.5902,       608,
   62.6104,       557,
   62.6306,       644,
   62.6507,       581,
   62.6709,       648,
   62.6911,       618,
   62.7112,       637,
   62.7314,       615,
   62.7516,       638,
   62.7718,       599,
   62.7919,       592,
   62.8121,       595,
   62.8323,       637,
   62.8524,       657,
   62.8726,       632,
   62.8928,       597,
   62.9129,       628,
   62.9331,       631,
   62.9533,       589,
   62.9734,       577,
   62.9936,       635,
   63.0138,       595,
   63.0339,       612,
   63.0541,       647,
   63.0743,       636,
   63.0945,       582,
   63.1146,       626,
   63.1348,       609,
    63.155,       588,
   63.1751,       628,
   63.1953,       657,
   63.2155,       618,
   63.2356,       673,
   63.2558,       599,
    63.276,       614,
   63.2961,       602,
   63.3163,       594,
   63.3365,       631,
   63.3566,       611,
   63.3768,       612,
    63.397,       638,
   63.4171,       599,
   63.4373,       612,
   63.4575,       593,
   63.4777,       624,
   63.4978,       620,
    63.518,       580,
   63.5382,       590,
   63.5583,       613,
   63.5785,       569,
   63.5987,       617,
   63.6188,       627,
    63.639,       606,
   63.6592,       582,
   63.6793,       612,
   63.6995,       598,
   63.7197,       619,
   63.7398,       615,
     63.76,       627,
   63.7802,       583,
   63.8003,       635,
   63.8205,       602,
   63.8407,       596,
   63.8609,       621,
    63.881,       598,
   63.9012,       653,
   63.9214,       628,
   63.9415,       631,
   63.9617,       640,
   63.9819,       568,
    64.002,       620,
   64.0222,       621,
   64.0424,       664,
   64.0625,       579,
   64.0827,       629,
   64.1029,       622,
    64.123,       585,
   64.1432,       608,
   64.1634,       572,
   64.1836,       600,
   64.2037,       583,
   64.2239,       608,
   64.2441,       665,
   64.2642,       630,
   64.2844,       603,
   64.3046,       595,
   64.3247,       666,
   64.3449,       576,
   64.3651,       550,
   64.3852,       638,
   64.4054,       618,
   64.4256,       608,
   64.4457,       614,
   64.4659,       565,
   64.4861,       636,
   64.5062,       601,
   64.5264,       599,
   64.5466,       619,
   64.5668,       664,
   64.5869,       633,
   64.6071,       610,
   64.6273,       652,
   64.6474,       633,
   64.6676,       633,
   64.6878,       575,
   64.7079,       613,
   64.7281,       606,
   64.7483,       607,
   64.7684,       623,
   64.7886,       572,
   64.8088,       600,
   64.8289,       623,
   64.8491,       623,
   64.8693,       633,
   64.8894,       629,
   64.9096,       591,
   64.9298,       631,
     64.95,       647,
   64.9701,       625,
   64.9903,       613,
   65.0105,       603,
   65.0306,       604,
   65.0508,       603,
    65.071,       587,
   65.0911,       644,
   65.1113,       583,
   65.1315,       609,
   65.1516,       607,
   65.1718,       606,
    65.192,       622,
   65.2121,       610,
   65.2323,       612,
   65.2525,       601,
   65.2727,       632,
   65.2928,       624,
    65.313,       604,
   65.3332,       639,
   65.3533,       635,
   65.3735,       584,
   65.3937,       621,
   65.4138,       599,
    65.434,       620,
   65.4542,       619,
   65.4743,       590,
   65.4945,       577,
   65.5147,       614,
   65.5348,       593,
    65.555,       613,
   65.5752,       603,
   65.5953,       605,
   65.6155,       652,
   65.6357,       602,
   65.6559,       635,
    65.676,       650,
   65.6962,       591,
   65.7164,       588,
   65.7365,       630,
   65.7567,       599,
   65.7769,       652,
    65.797,       620,
   65.8172,       580,
   65.8374,       621,
   65.8575,       664,
   65.8777,       658,
   65.8979,       575,
    65.918,       621,
   65.9382,       612,
   65.9584,       649,
   65.9786,       632,
   65.9987,       629,
   66.0189,       633,
   66.0391,       622,
   66.0592,       659,
   66.0794,       617,
   66.0996,       629,
   66.1197,       642,
   66.1399,       625,
   66.1601,       566,
   66.1802,       621,
   66.2004,       622,
   66.2206,       607,
   66.2407,       641,
   66.2609,       599,
   66.2811,       639,
   66.3012,       618,
   66.3214,       613,
   66.3416,       639,
   66.3618,       596,
   66.3819,       658,
   66.4021,       608,
   66.4223,       648,
   66.4424,       656,
   66.4626,       591,
   66.4828,       593,
   66.5029,       645,
   66.5231,       605,
   66.5433,       576,
   66.5634,       631,
   66.5836,       613,
   66.6038,       635,
   66.6239,       611,
   66.6441,       559,
   66.6643,       610,
   66.6844,       645,
   66.7046,       616,
   66.7248,       648,
    66.745,       627,
   66.7651,       630,
   66.7853,       607,
   66.8055,       614,
   66.8256,       621,
   66.8458,       580,
    66.866,       566,
   66.8861,       600,
   66.9063,       611,
   66.9265,       600,
   66.9466,       610,
   66.9668,       644,
    66.987,       604,
   67.0071,       625,
   67.0273,       635,
   67.0475,       593,
   67.0677,       621,
   67.0878,       583,
    67.108,       628,
   67.1282,       607,
   67.1483,       579,
   67.1685,       616,
   67.1887,       599,
   67.2088,       590,
    67.229,       600,
   67.2492,       623,
   67.2693,       618,
   67.2895,       590,
   67.3097,       636,
   67.3298,       601,
     67.35,       592,
   67.3702,       646,
   67.3903,       635,
   67.4105,       611,
   67.4307,       601,
   67.4509,       585,
    67.471,       640,
   67.4912,       655,
   67.5114,       634,
   67.5315,       609,
   67.5517,       642,
   67.5719,       631,
    67.592,       585,
   67.6122,       649,
   67.6324,       617,
   67.6525,       575,
   67.6727,       622,
   67.6929,       600,
    67.713,       608,
   67.7332,       659,
   67.7534,       604,
   67.7735,       588,
   67.7937,       612,
   67.8139,       594,
   67.8341,       593,
   67.8542,       604,
   67.8744,       611,
   67.8946,       652,
   67.9147,       603,
   67.9349,       613,
   67.9551,       593,
   67.9752,       601,
   67.9954,       613,
   68.0156,       595,
   68.0357,       584,
   68.0559,       591,
   68.0761,       637,
   68.0962,       633,
   68.1164,       630,
   68.1366,       635,
   68.1568,       604,
   68.1769,       596,
   68.1971,       590,
   68.2173,       608,
   68.2374,       568,
   68.2576,       610,
   68.2778,       614,
   68.2979,       612,
   68.3181,       580,
   68.3383,       593,
   68.3584,       661,
   68.3786,       612,
   68.3988,       632,
   68.4189,       646,
   68.4391,       593,
   68.4593,       630,
   68.4794,       583,
   68.4996,       632,
   68.5198,       654,
     68.54,       654,
   68.5601,       621,
   68.5803,       590,
   68.6005,       634,
   68.6206,       600,
   68.6408,       582,
    68.661,       612,
   68.6811,       604,
   68.7013,       606,
   68.7215,       631,
   68.7416,       636,
   68.7618,       589,
    68.782,       574,
   68.8021,       593,
   68.8223,       602,
   68.8425,       633,
   68.8626,       601,
   68.8828,       575,
    68.903,       615,
   68.9232,       611,
   68.9433,       628,
   68.9635,       609,
   68.9837,       625,
   69.0038,       630,
    69.024,       621,
   69.0442,       583,
   69.0643,       593,
   69.0845,       600,
   69.1047,       609,
   69.1248,       614,
    69.145,       603,
   69.1652,       630,
   69.1853,       619,
   69.2055,       603,
   69.2257,       590,
   69.2459,       601,
    69.266,       609,
   69.2862,       594,
   69.3064,       612,
   69.3265,       603,
   69.3467,       603,
   69.3669,       599,
    69.387,       600,
   69.4072,       602,
   69.4274,       552,
   69.4475,       581,
   69.4677,       647,
   69.4879,       615,
    69.508,       553,
   69.5282,       628,
   69.5484,       622,
   69.5685,       597,
   69.5887,       608,
   69.6089,       582,
   69.6291,       618,
   69.6492,       588,
   69.6694,       660,
   69.6896,       598,
   69.7097,       572,
   69.7299,       621,
   69.7501,       601,
   69.7702,       584,
   69.7904,       617,
   69.8106,       682,
   69.8307,       616,
   69.8509,       624,
   69.8711,       648,
   69.8912,       627,
   69.9114,       586,
   69.9316,       637,
   69.9517,       566,
   69.9719,       598,
   69.9921,       639,
   70.0123,       632,
   70.0324,       634,
   70.0526,       611,
   70.0728,       617,
   70.0929,       600,
   70.1131,       624,
   70.1333,       610,
   70.1534,       605,
   70.1736,       591,
   70.1938,       597,
   70.2139,       610,
   70.2341,       602,
   70.2543,       559,
   70.2744,       583,
   70.2946,       608,
   70.3148,       556,
    70.335,       624,
   70.3551,       612,
   70.3753,       584,
   70.3955,       608,
   70.4156,       629,
   70.4358,       610,
    70.456,       573,
   70.4761,       610,
   70.4963,       622,
   70.5165,       616,
   70.5366,       605,
   70.5568,       633,
    70.577,       603,
   70.5971,       627,
   70.6173,       622,
   70.6375,       622,
   70.6576,       629,
   70.6778,       649,
    70.698,       661,
   70.7182,       597,
   70.7383,       587,
   70.7585,       592,
   70.7787,       618,
   70.7988,       601,
    70.819,       643,
   70.8392,       619,
   70.8593,       596,
   70.8795,       601,
   70.8997,       598,
   70.9198,       608,
     70.94,       619,
   70.9602,       627,
   70.9803,       630,
   71.0005,       604,
   71.0207,       618,
   71.0409,       624,
    71.061,       578,
   71.0812,       610,
   71.1014,       648,
   71.1215,       636,
   71.1417,       595,
   71.1619,       610,
    71.182,       571,
   71.2022,       650,
   71.2224,       628,
   71.2425,       648,
   71.2627,       667,
   71.2829,       600,
    71.303,       625,
   71.3232,       588,
   71.3434,       647,
   71.3635,       603,
   71.3837,       627,
   71.4039,       630,
   71.4241,       608,
   71.4442,       624,
   71.4644,       634,
   71.4846,       624,
   71.5047,       623,
   71.5249,       643,
   71.5451,       640,
   71.5652,       608,
   71.5854,       656,
   71.6056,       632,
   71.6257,       628,
   71.6459,       658,
   71.6661,       628,
   71.6862,       640,
   71.7064,       641,
   71.7266,       602,
   71.7467,       651,
   71.7669,       625,
   71.7871,       618,
   71.8073,       634,
   71.8274,       637,
   71.8476,       645,
   71.8678,       635,
   71.8879,       641,
   71.9081,       626,
   71.9283,       632,
   71.9484,       611,
   71.9686,       622,
   71.9888,       622,
   72.0089,       590,
   72.0291,       598,
   72.0493,       657,
   72.0694,       641,
   72.0896,       614,
   72.1098,       582,
     72.13,       585,
   72.1501,       580,
   72.1703,       633,
   72.1905,       661,
   72.2106,       630,
   72.2308,       616,
    72.251,       620,
   72.2711,       585,
   72.2913,       592,
   72.3115,       622,
   72.3316,       632,
   72.3518,       658,
    72.372,       648,
   72.3921,       624,
   72.4123,       625,
   72.4325,       654,
   72.4526,       640,
   72.4728,       622,
    72.493,       674,
   72.5132,       619,
   72.5333,       642,
   72.5535,       600,
   72.5737,       630,
   72.5938,       633,
    72.614,       643,
   72.6342,       625,
   72.6543,       651,
   72.6745,       668,
   72.6947,       626,
   72.7148,       678,
    72.735,       666,
   72.7552,       626,
   72.7753,       639,
   72.7955,       633,
   72.8157,       609,
   72.8358,       660,
    72.856,       641,
   72.8762,       646,
   72.8964,       623,
   72.9165,       635,
   72.9367,       595,
   72.9569,       600,
    72.977,       631,
   72.9972,       685,
   73.0174,       652,
   73.0375,       617,
   73.0577,       631,
   73.0779,       647,
    73.098,       647,
   73.1182,       645,
   73.1384,       603,
   73.1585,       658,
   73.1787,       647,
   73.1989,       660,
   73.2191,       635,
   73.2392,       634,
   73.2594,       632,
   73.2796,       690,
   73.2997,       661,
   73.3199,       691,
   73.3401,       635,
   73.3602,       643,
   73.3804,       652,
   73.4006,       655,
   73.4207,       633,
   73.4409,       696,
   73.4611,       638,
   73.4812,       641,
   73.5014,       635,
   73.5216,       666,
   73.5417,       689,
   73.5619,       655,
   73.5821,       690,
   73.6023,       705,
   73.6224,       711,
   73.6426,       720,
   73.6628,       709,
   73.6829,       740,
   73.7031,       726,
   73.7233,       803,
   73.7434,       768,
   73.7636,       812,
   73.7838,       828,
   73.8039,       823,
   73.8241,       870,
   73.8443,       873,
   73.8644,       857,
   73.8846,       881,
   73.9048,       920,
   73.9249,       928,
   73.9451,       981,
   73.9653,      1045,
   73.9855,      1114,
   74.0056,      1157,
   74.0258,      1357,
    74.046,      1507,
   74.0661,      1964,
   74.0863,      2621,
   74.1065,      3928,
   74.1266,      6464,
   74.1468,      9999,
    74.167,     12069,
   74.1871,     10826,
   74.2073,      7149,
   74.2275,      4413,
   74.2476,      3067,
   74.2678,      2409,
    74.288,      2131,
   74.3082,      2331,
   74.3283,      3108,
   74.3485,      4402,
   74.3687,      5889,
   74.3888,      6541,
    74.409,      5386,
   74.4292,      3603,
   74.4493,      2432,
   74.4695,      1719,
   74.4897,      1452,
   74.5098,      1182,
     74.53,      1030,
   74.5502,      1009,
   74.5703,       926,
   74.5905,       895,
   74.6107,       860,
   74.6308,       799,
    74.651,       814,
   74.6712,       790,
   74.6914,       773,
   74.7115,       794,
   74.7317,       690,
   74.7519,       755,
    74.772,       722,
   74.7922,       684,
   74.8124,       691,
   74.8325,       708,
   74.8527,       702,
   74.8729,       707,
    74.893,       681,
   74.9132,       658,
   74.9334,       670,
   74.9535,       658,
   74.9737,       699,
   74.9939,       726,
    75.014,       652,
   75.0342,       655,
   75.0544,       649,
   75.0746,       694,
   75.0947,       650,
   75.1149,       668,
   75.1351,       682,
   75.1552,       681,
   75.1754,       612,
   75.1956,       642,
   75.2157,       648,
   75.2359,       643,
   75.2561,       640,
   75.2762,       660,
   75.2964,       632,
   75.3166,       631,
   75.3367,       632,
   75.3569,       660,
   75.3771,       670,
   75.3973,       622,
   75.4174,       593,
   75.4376,       661,
   75.4578,       625,
   75.4779,       625,
   75.4981,       601,
   75.5183,       640,
   75.5384,       654,
   75.5586,       614,
   75.5788,       653,
   75.5989,       653,
   75.6191,       601,
   75.6393,       612,
   75.6594,       639,
   75.6796,       611,
   75.6998,       625,
   75.7199,       604,
   75.7401,       589,
   75.7603,       620,
   75.7805,       625,
   75.8006,       613,
   75.8208,       646,
    75.841,       636,
   75.8611,       627,
   75.8813,       666,
   75.9015,       653,
   75.9216,       663,
   75.9418,       657,
    75.962,       656,
   75.9821,       659,
   76.0023,       624,
   76.0225,       678,
   76.0426,       626,
   76.0628,       609,
    76.083,       642,
   76.1032,       683,
   76.1233,       626,
   76.1435,       634,
   76.1637,       633,
   76.1838,       622,
    76.204,       626,
   76.2242,       622,
   76.2443,       637,
   76.2645,       617,
   76.2847,       650,
   76.3048,       622,
    76.325,       624,
   76.3452,       661,
   76.3653,       583,
   76.3855,       611,
   76.4057,       628,
   76.4258,       641,
    76.446,       673,
   76.4662,       610,
   76.4864,       645,
   76.5065,       597,
   76.5267,       670,
   76.5469,       600,
    76.567,       588,
   76.5872,       672,
   76.6074,       584,
   76.6275,       627,
   76.6477,       642,
   76.6679,       562,
    76.688,       649,
   76.7082,       612,
   76.7284,       592,
   76.7485,       622,
   76.7687,       615,
   76.7889,       628,
    76.809,       559,
   76.8292,       623,
   76.8494,       608,
   76.8696,       641,
   76.8897,       628,
   76.9099,       585,
   76.9301,       615,
   76.9502,       677,
   76.9704,       608,
   76.9906,       603,
   77.0107,       604,
   77.0309,       615,
   77.0511,       579,
   77.0712,       634,
   77.0914,       616,
   77.1116,       618,
   77.1317,       633,
   77.1519,       608,
   77.1721,       589,
   77.1923,       651,
   77.2124,       627,
   77.2326,       630,
   77.2528,       626,
   77.2729,       622,
   77.2931,       581,
   77.3133,       599,
   77.3334,       617,
   77.3536,       650,
   77.3738,       647,
   77.3939,       618,
   77.4141,       642,
   77.4343,       643,
   77.4544,       581,
   77.4746,       598,
   77.4948,       599,
   77.5149,       628,
   77.5351,       567,
   77.5553,       641,
   77.5755,       624,
   77.5956,       623,
   77.6158,       574,
    77.636,       599,
   77.6561,       593,
   77.6763,       649,
   77.6965,       640,
   77.7166,       636,
   77.7368,       611,
    77.757,       612,
   77.7771,       604,
   77.7973,       588,
   77.8175,       592,
   77.8376,       586,
   77.8578,       635,
    77.878,       661,
   77.8981,       640,
   77.9183,       649,
   77.9385,       599,
   77.9587,       613,
   77.9788,       645,
    77.999,       595,
