;RAW4.00
[RawHeader]
Date=11/25/2025
EstimatedTotalTime=426.6
FurtherDQLReading=0
HardwareIndicator=65519
MeasuredTotalTime=4.32971
MeasurementFlag=1
NumberOfMeasuredRanges=1
NumberOfRanges=1
Time=22:00:19

[VarInfo]
Type=USER
Flags=0
Value=Lab Manager

[VarInfo]
Type=SAMPLEID
Flags=0
Value=Commander Sample ID

[VarInfo]
Type=COMMENT
Flags=0
Value=

[VarInfo]
Type=UTF
Flags=0
Value=

[VarInfo]
Type=CREATOR
Flags=0
Value=V5Converter

[VarInfo]
Type=CREATOR_VERSION
Flags=0
Value=4.4.16.0

[HardwareConfiguration]
AbsorptionFactor=9999
ActivateAbsorber=0
Alpha1=1.5406
Alpha2=1.54439
AlphaAverage=1.54184
AlphaRatio=0.5
Analyzer=0
Anode=Cu
AntiScatteringSlit=9999
BeamOpticsFlags=0
Beta=1.39222
BetaRelativeIntensity=0
DeactivateAbsorber=0
DetectorSlit=9999
DivergenceSlit=9999
GoniometerControl=0
GoniometerDiameter=282
GoniometerModel=256
GoniometerStage=7
Monochromator=0
NearSampleSlit=9999
PrimarySollerSlit=9999
SampleChanger=0
SecondSollerSlit=9999
SynchronousAxis=0
ThinFilmAttachment=9999
WaveUnit=A

[RangeHeader]
ActuallyUsedLambda=1.54184
AdditionalDetectorMask=257
DataRecordLength=4
DelayTime=0
DisplayPlaneNumber=0
EstimatedScanTime=427
ExtraParametersMask=0
GeneratorCurrent=10
GeneratorVoltage=30
Increment=0.0201685
Increment3=0
NumberOfCompletedData=1885
NumberOfCounts=1
NumberOfDetectors=0
NumberOfDrives=3
NumberOfEncoderDrives=0
NumberOfMeasuredData=1885
NumberOfVaryingParameters=0
RangeStartTime=0
RotationSpeed=0
ScanMode=1
ScanType=Locked Coupled
SimulatedMeasConditions=0
SlitChangerIn=0
SmootingWidth=0
Start=40.0015
Steps=1885
SynchronousRotation=0
Time=33

[VarInfo]
Type=PSD_DISCRIM
Flags=0
Value=0.11;0.5

[VarInfo]
Type=OPTICS_V5
Flags=0
Value=H4sIAAAAAAAEAO1d63KjOhJ+Fda/zqmtBIPtXKaITzm2J+OaOHbFTnKmtrZcBORYZzC4AOey//d99hl2X2x1QViIS8C3JBN+TCaodWm6+2vUUkfS/nieW9IjcD3o2GcV5bBakYBtOCa0H84qS396oBxV/mhqF44NnTnwgdt25gvHBrbf0X1dQq1t78uzB88qM99ffJHlp6enw6faoeM+yGq1qsh/9i9HxgzM9QNoe75uG6AStjJfb1WRbqEH7y1wpc/BWWXFR0joAM9w4cInL/Bj4UHLsSW+3oXrLBc9NBZ6t3Pgojcb3P8FDH+o+7OzitwBj9AAMt+CrxUfl1Lblu55QRehTORzoM8XqLDt2L4ObeBy/coBc6yHluEvdYtxoR6o1ePT02O5h8TkLue4tzhrTW2EZGjqqBswQr3oFvyXjl+9OdUtD2hyGln7c259hcAyrwHqHhq4EDFpA/KbJ8lNjfKD1ToCFipvdm00JDA1OUbR6Btwou9Ab2HpL824AjQ5tXK8m+bF4OrHhPzodEft64TGrBVWDOsoPhpP1bBWhrxWvISy1r0hIUP+4r8skMLHrm78xG8sGODQhXPdfSHkZBMMakgD9GxISBvSeHkPOIFIQeOidilHx44baRI9r5mSRmyEDSxUYBJZ3blu/xy4JnCvAfYzAL0wsdX3b8s5NVnMwIfj6+8T9KPV/l7IxHm5Jhp5z0OvBh9BE+kGCS98DAk920dCZMIVSikeHA9SJulgmhwp1bAq2ZMXfZT4B2LSAxc+QFu3ogSlwl6OWi7Ssb/0moPwnSLFGmsYPPedJdIj0qJQrgWE0MJ5JCOdEXICmjFtjmnJUA7J0tRxpRHQLUBtYA3AytxYcejGiMm4JZa46kmmLG0LrhEWBa3xcus++8A2MZDfDYZpCWdMkQKtj5nwHfcltGVFk+OFGseMJxH2qHoYWND7cnJosmJN5ku1uCnh1+H65qyTKx3Y545jAR1NEG5s6BPpdiDSG56bXcI59IlYwiKvWdVk7knrgKm+tPxb3VoCboigVyQ96CPXTshnFewlKri/oQta5l9LD8GnYEuZYx67mbHTJoqe6ZblPK0cjVCOarZnwPgJzFUVVqC1ESPOHKsWvx33pNH5Zl7erhEyxkg2xVq1lr7TdoHug6HrLIDrvzAWEyiR9/eIRfdMhLKr5fweuE21rslCEdaQRS08UPF//xMyUSUc9B0TNG8Quqbos4xMnTwz90Y+PzEHluy7tuWt5HgP/ND5vNXOHBXjLvaN2aNbYuh5A79Evm3IJvErCL6JJ23LP418rD3OPSHRTOHDEjnla/gw85sIdabECnU0BoKwUKWYS+vrz5fAfvBnTbXRwKJhj2nOjrJISkNktZevObqMVm/q5DL4SnFwGS02cm5pFninPwKqkpa1mOmKYIUieVuWOJh2nCVqyWzxf//ehzWm2Nxw9uJBQ7dIeQJnTA/KYaNePXrNFtfo7ca2MPfItOjcf/WMZelYS+paugfVBtErK9H60Ibz5bx5oBwenx4fndaUWv3kSK0pjePu32vVE4S4oAZGIvklvWZQ4W0Rs4b0UpC0Rk/7QJiajTD10yOsXjvdJsRYdyXGNhLfFkDGuto1yh6Bqz+IoV6M/ulxppzUt4kz1l2Js43EtwWcsa52jLNz4OupIMPET46w2qmqqttD2Kq7EmEbiW9jhK262jHCrvGaRirECHVXGHuvCFutth02NsJWrKMSVWsKbh08xTrZCZK+OsbSG7gQ2D5ZHRSgJJK3tspG1g4H057tH9XfH6CibEVXr/OjKbkXhfRCBYDfqOeDOWLs0nmABl3VvJn0rm5bl73OpP2tN9TkFYkJfAye/WbPftQtiMQzg4uVjCJaIvW07+CFjI1lEf6uyTEWsnm67F2lsnIJbSARW0kbWtlk6OEgY+yhA20/e3B1k8GZLoaD0auqCHeKD6S58wgk35HmwJjpNrYKCTmTxd/SeKxl8/ienF2WXefzdFk9bOTm6N5Lz546UqiqhAVciZbr3FOQY3BWIVUkVBrdJr+ZtC6H31rRcrGRhEeyyEjkXXKxo0bYURPZUVPYUbPYUQuzEywL8PxEyoQBQloib5PW7UUWe0HrokySmCrg8D78PeybkkWGzrvjVjIvuH4+FiIbUQEDqBXeyxN46LJSkY3uZbffvRqnSMV2TCAFbaXVSDlkQmfBvNq4EkHsASVZZdetcW+QpTTSOp+8YlOLgL9pYnk4ToQicvl10J4MrpMZJONJkeZyfMe6Ed+xvgA2skTfcYU8TFacvPmcsQFLZ8dr7r82tXQiP3O7dSw/voYXlO4q5vl5u6WEjcypLxqFfRNqVSHyCL4FKaFHctihVBMCjFp1f7FErbF+MBEXRsEvZLo55TW19tJ1sT+LmlpQuitTm7f2YWpolHD6sQ1TaySFsh/E0uKy2LulDZ0nkgHOmxQp25WV3aUEnW+xcHMnRJr5lluqhymm+EkWW+4491hde7Ul3ssWbV9+7YtfJA0UTQyNGXBfyVbbPA8ud74bklUw60j9YgWfilQ/I4dzraYmBmuZ2QhiKJW9qxqLdLI3h6IxR/YytzAXT1vD42MIIXVJnC4nR8cylyaJ7OZRhxZeJcCPHu2eWH2ZQFkmUJYJlGUCZZlA+fE2xcsEyvezJV4mUP6aCCsTKN8TxsoEyl8VZ2UC5XvCWZlA+ashrEygfE8IKxMoywTKMoGyTKAsEyjLBMoygbJMoCwTKMsEyjKBskygLBMoywTKMoGyTKAsEyjLBMoygbJMoHzr+KNMoCwTKD9tAiXLkUS/iumT7KzT+Cmg4tm7GScqd+cL/4UkG4arGcVOT+72h4PRhP4scnoyGTg0xcTzk2U+BzLzcGMl7XBjde+HGw8WbefceR5MR45lATfhiGNKyDjkmKsg/WbotmTQQ8ElNJZEifQE7N/XgX9k+LhXSSBnuYaE6hunwkb7FPSZfOxxRGTIPPKL8PePe2KymphYK0bAR+scevtxXAin6Q2diJrmRGpv50S+wmdgEkNlcw/RmVjQz3IliCz1U2CAaRv4kdXICV5EJGb6ELHy5h6E61FQZYr/YA2o98gntQ/sOmq5XMfxeudlE7OmVzSsTJpYMhZe0hcRy1SR/jGf/zPDjH/DR/7fA2QfErQ9hAVgol98R9I5hWWaMq5mhBds4KeJUp0oaQYcIb5mwIVtN52ZmPP5qH/5US30lx930PRnYm4HLtvZktP8/WxBxzgL44DNsuvjPeVdZqh+7nWGuODWWWeI97KTtI5vABumgB1a+LnBszXslNBZz+i3gpzt3wSirjOzGenzhQXuZgBYY/QC/KUgIkkjH65UJ0ChmfamMj+F+lCxGJtFbxiJ1dIisfpGkRjhMR6HvT9h3thLD5hkeHHgLInKwm1g17oJl16CldWVYB+fXrg3mE494KdZfesZevz3Iay2B1ceYybnbh1ywVU1LSlVPTypn6qNRkNN8LvHjcOTRv24dqQqvK8VhNAM7mETbitc+w7DEUCRgJl9i2FYh7v9roNCXwNnMmzhLkORh4SYKLFGsfsMwz42ifVFRj70nYaF9FrM/4zwzYaj4jcbRuW787sNw+F2cbvhyRss3uHlOks3wMyxzMQtgMsX+xm8pBxzcfnj6s/ujy654bCjSsOZ7olX4OYEsRyOEwezQMpa3mDWKOO8X3k4Wj2jProvYAvX6KYzLmrzl7v28CTPUlxNiU9Yi8wL0ecUu0XdWrmWfniNJk2pxn6HJHazGl4xZ9PpjyfkXwFHw4ba6R6gstmscZebgP09bgIKCIswkLYN2N/zNmAmj6JSs3YC+59rJ1Cp53Ii1c+wFVhGSkUjpbRAqXF4dHrSUJRqPWmBqqEcHldP68dqfQeB0sontAHGieA9hcKI4+SmzLSadMAw70kjnLfkkW8dVkPLMIDnOS4E3hoRE+Mi7j2jlLwRUvyl1/ekrIcPHRqtqcpiLudicNWekB9FHA7lZ+eh0Ri4qHQnkdHp3mdFwxkkShPAfO0EGXBRYgTUqKlErdE1Wb0CGJXZGHSdNqGDKCsJ1TJnP6vqMuJUZpxuDuAUxgVFpsREEgUYMFu+rxszPNBZ5WDPRwluc5pzmitr4SQ+y+l5TBQhKMMCjfMcZLfIWj48ALPjYkzSv8ZE3eHvWs9sIu2S3oNHTCEVRwtgwGnwt6KsUpyC4BLvvcgEK46DYs5u+K03mpAfRZxdFKHbnGBVi0yvQisOP5lEYfRDEPwf22IqXU7pckqXI7qcECvsd+8VLsZPznhGTjB6jZVIzZz8ZA+dc9yig6ZEJvFifFQxXo8YAd9H0PIkfi6GHAXNPKxILbzB7vVR6AbplI5NtLGOuVT/5i2e1Rn4EFu+VFtBkewhB6uqmiyUa3yqI/WAkWUTj/6JxSqYYK6D6Pv/u9RXv2COAAA=

[PSD]
ActualTwoTheta=9999
FirstUsedChannel=0
FixedPSD=0
PSDOpening=4.99171
PSDType=5

[Drive]
DriveFlags=1
DriveName=2Theta
DriveNumber=2
DriveOffset=0
OffsetIndex=0
OscillationAmplitude=0
OscillationSpeed=0
StartPosition=40.0015

[Drive]
DriveFlags=1
DriveName=Theta
DriveNumber=1
DriveOffset=0
OffsetIndex=0
OscillationAmplitude=0
OscillationSpeed=0
StartPosition=20.0007

[Drive]
DriveFlags=1
DriveName=Phi
DriveNumber=3
DriveOffset=0
OffsetIndex=0
OscillationAmplitude=0
OscillationSpeed=0
StartPosition=0

[Data]
     Angle,       PSD,
   40.0015,       651,
   40.0217,       656,
   40.0418,       596,
    40.062,       601,
   40.0822,       652,
   40.1023,       635,
   40.1225,       592,
   40.1427,       622,
   40.1628,       665,
    40.183,       605,
   40.2032,       614,
   40.2233,       619,
   40.2435,       652,
   40.2637,       613,
   40.2838,       654,
    40.304,       615,
   40.3242,       592,
   40.3444,       627,
   40.3645,       657,
   40.3847,       572,
   40.4049,       660,
    40.425,       643,
   40.4452,       619,
   40.4654,       605,
   40.4855,       605,
   40.5057,       643,
   40.5259,       592,
    40.546,       591,
   40.5662,       620,
   40.5864,       608,
   40.6065,       616,
   40.6267,       650,
   40.6469,       615,
   40.6671,       606,
   40.6872,       612,
   40.7074,       582,
   40.7276,       677,
   40.7477,       681,
   40.7679,       593,
   40.7881,       625,
   40.8082,       626,
   40.8284,       604,
   40.8486,       626,
   40.8687,       624,
   40.8889,       623,
   40.9091,       640,
   40.9292,       667,
   40.9494,       660,
   40.9696,       617,
   40.9897,       632,
   41.0099,       637,
   41.0301,       649,
   41.0503,       646,
   41.0704,       655,
   41.0906,       610,
   41.1108,       611,
   41.1309,       675,
   41.1511,       605,
   41.1713,       688,
   41.1914,       707,
   41.2116,       657,
   41.2318,       661,
   41.2519,       643,
   41.2721,       663,
   41.2923,       710,
   41.3124,       611,
   41.3326,       678,
   41.3528,       667,
   41.3729,       637,
   41.3931,       608,
   41.4133,       682,
   41.4335,       622,
   41.4536,       629,
   41.4738,       673,
    41.494,       645,
   41.5141,       653,
   41.5343,       673,
   41.5545,       659,
   41.5746,       671,
   41.5948,       654,
    41.615,       688,
   41.6351,       630,
   41.6553,       657,
   41.6755,       709,
   41.6956,       671,
   41.7158,       707,
    41.736,       673,
   41.7562,       649,
   41.7763,       655,
   41.7965,       706,
   41.8167,       716,
   41.8368,       687,
    41.857,       694,
   41.8772,       724,
   41.8973,       707,
   41.9175,       732,
   41.9377,       750,
   41.9578,       703,
    41.978,       769,
   41.9982,       724,
   42.0183,       778,
   42.0385,       784,
   42.0587,       786,
   42.0788,       714,
    42.099,       744,
   42.1192,       789,
   42.1394,       779,
   42.1595,       787,
   42.1797,       820,
   42.1999,       821,
     42.22,       808,
   42.2402,       807,
   42.2604,       784,
   42.2805,       795,
   42.3007,       822,
   42.3209,       796,
    42.341,       835,
   42.3612,       864,
   42.3814,       807,
   42.4015,       849,
   42.4217,       869,
   42.4419,       851,
    42.462,       892,
   42.4822,       858,
   42.5024,       831,
   42.5226,       856,
   42.5427,       940,
   42.5629,       847,
   42.5831,       873,
   42.6032,       914,
   42.6234,       915,
   42.6436,       949,
   42.6637,       920,
   42.6839,       935,
   42.7041,       976,
   42.7242,       969,
   42.7444,       943,
   42.7646,       975,
   42.7847,      1052,
   42.8049,      1070,
   42.8251,      1037,
   42.8453,      1055,
   42.8654,      1082,
   42.8856,      1122,
   42.9058,      1150,
   42.9259,      1199,
   42.9461,      1262,
   42.9663,      1294,
   42.9864,      1338,
   43.0066,      1397,
   43.0268,      1448,
   43.0469,      1568,
   43.0671,      1657,
   43.0873,      1669,
   43.1074,      1706,
   43.1276,      1867,
   43.1478,      2029,
   43.1679,      2113,
   43.1881,      2362,
   43.2083,      2625,
   43.2285,      2847,
   43.2486,      3202,
   43.2688,      3487,
    43.289,      4006,
   43.3091,      4440,
   43.3293,      5309,
   43.3495,      6138,
   43.3696,      7131,
   43.3898,      8319,
     43.41,      9786,
   43.4301,     11249,
   43.4503,     12870,
   43.4705,     14046,
   43.4906,     15148,
   43.5108,     15461,
    43.531,     15193,
   43.5511,     14769,
   43.5713,     14174,
   43.5915,     13302,
   43.6117,     12539,
   43.6318,     11237,
    43.652,      9993,
   43.6722,      8631,
   43.6923,      7642,
   43.7125,      6500,
   43.7327,      5775,
   43.7528,      5044,
    43.773,      4444,
   43.7932,      3915,
   43.8133,      3470,
   43.8335,      3214,
   43.8537,      2965,
   43.8738,      2525,
    43.894,      2331,
   43.9142,      2186,
   43.9344,      2063,
   43.9545,      1912,
   43.9747,      1824,
   43.9949,      1691,
    44.015,      1704,
   44.0352,      1539,
   44.0554,      1486,
   44.0755,      1407,
   44.0957,      1363,
   44.1159,      1329,
    44.136,      1279,
   44.1562,      1305,
   44.1764,      1267,
   44.1965,      1126,
   44.2167,      1124,
   44.2369,      1125,
    44.257,      1101,
   44.2772,      1071,
   44.2974,      1065,
   44.3176,      1074,
   44.3377,      1030,
   44.3579,      1031,
   44.3781,       955,
   44.3982,       923,
   44.4184,       953,
   44.4386,       977,
   44.4587,       944,
   44.4789,       927,
   44.4991,       842,
   44.5192,       923,
   44.5394,       954,
   44.5596,       861,
   44.5797,       892,
   44.5999,       921,
   44.6201,       870,
   44.6402,       887,
   44.6604,       903,
   44.6806,       868,
   44.7008,       869,
   44.7209,       842,
   44.7411,       829,
   44.7613,       868,
   44.7814,       869,
   44.8016,       802,
   44.8218,       823,
   44.8419,       852,
   44.8621,       830,
   44.8823,       874,
   44.9024,       820,
   44.9226,       847,
   44.9428,       805,
   44.9629,       775,
   44.9831,       827,
   45.0033,       816,
   45.0235,       752,
   45.0436,       790,
   45.0638,       805,
    45.084,       812,
   45.1041,       739,
   45.1243,       806,
   45.1445,       696,
   45.1646,       792,
   45.1848,       767,
    45.205,       787,
   45.2251,       777,
   45.2453,       812,
   45.2655,       757,
   45.2856,       715,
   45.3058,       834,
    45.326,       736,
   45.3461,       786,
   45.3663,       730,
   45.3865,       784,
   45.4067,       772,
   45.4268,       789,
    45.447,       759,
   45.4672,       741,
   45.4873,       724,
   45.5075,       735,
   45.5277,       797,
   45.5478,       753,
    45.568,       760,
   45.5882,       776,
   45.6083,       697,
   45.6285,       779,
   45.6487,       782,
   45.6688,       733,
    45.689,       694,
   45.7092,       711,
   45.7294,       754,
   45.7495,       751,
   45.7697,       727,
   45.7899,       737,
     45.81,       756,
   45.8302,       662,
   45.8504,       771,
   45.8705,       717,
   45.8907,       736,
   45.9109,       708,
    45.931,       696,
   45.9512,       809,
   45.9714,       724,
   45.9915,       754,
   46.0117,       703,
   46.0319,       717,
    46.052,       755,
   46.0722,       714,
   46.0924,       713,
   46.1126,       692,
   46.1327,       708,
   46.1529,       695,
   46.1731,       683,
   46.1932,       723,
   46.2134,       722,
   46.2336,       694,
   46.2537,       707,
   46.2739,       722,
   46.2941,       711,
   46.3142,       696,
   46.3344,       715,
   46.3546,       663,
   46.3747,       630,
   46.3949,       666,
   46.4151,       657,
   46.4352,       704,
   46.4554,       730,
   46.4756,       660,
   46.4958,       720,
   46.5159,       671,
   46.5361,       692,
   46.5563,       715,
   46.5764,       712,
   46.5966,       710,
   46.6168,       768,
   46.6369,       710,
   46.6571,       697,
   46.6773,       751,
   46.6974,       666,
   46.7176,       709,
   46.7378,       711,
   46.7579,       710,
   46.7781,       719,
   46.7983,       660,
   46.8185,       692,
   46.8386,       737,
   46.8588,       697,
    46.879,       726,
   46.8991,       699,
   46.9193,       740,
   46.9395,       699,
   46.9596,       727,
   46.9798,       697,
        47,       663,
   47.0201,       754,
   47.0403,       734,
   47.0605,       717,
   47.0806,       701,
   47.1008,       683,
    47.121,       687,
   47.1411,       662,
   47.1613,       679,
   47.1815,       739,
   47.2017,       675,
   47.2218,       684,
    47.242,       662,
   47.2622,       673,
   47.2823,       694,
   47.3025,       704,
   47.3227,       642,
   47.3428,       675,
    47.363,       654,
   47.3832,       728,
   47.4033,       677,
   47.4235,       699,
   47.4437,       657,
   47.4638,       689,
    47.484,       691,
   47.5042,       668,
   47.5243,       667,
   47.5445,       673,
   47.5647,       710,
   47.5849,       654,
    47.605,       655,
   47.6252,       715,
   47.6454,       687,
   47.6655,       697,
   47.6857,       716,
   47.7059,       659,
    47.726,       649,
   47.7462,       702,
   47.7664,       690,
   47.7865,       631,
   47.8067,       695,
   47.8269,       673,
    47.847,       660,
   47.8672,       706,
   47.8874,       717,
   47.9076,       662,
   47.9277,       712,
   47.9479,       704,
   47.9681,       678,
   47.9882,       642,
   48.0084,       685,
   48.0286,       660,
   48.0487,       699,
   48.0689,       677,
   48.0891,       681,
   48.1092,       757,
   48.1294,       638,
   48.1496,       687,
   48.1697,       662,
   48.1899,       683,
   48.2101,       692,
   48.2302,       678,
   48.2504,       742,
   48.2706,       655,
   48.2908,       680,
   48.3109,       691,
   48.3311,       655,
   48.3513,       738,
   48.3714,       672,
   48.3916,       655,
   48.4118,       676,
   48.4319,       726,
   48.4521,       721,
   48.4723,       724,
   48.4924,       741,
   48.5126,       678,
   48.5328,       721,
   48.5529,       687,
   48.5731,       653,
   48.5933,       700,
   48.6134,       700,
   48.6336,       714,
   48.6538,       772,
    48.674,       710,
   48.6941,       716,
   48.7143,       650,
   48.7345,       738,
   48.7546,       694,
   48.7748,       694,
    48.795,       684,
   48.8151,       699,
   48.8353,       745,
   48.8555,       760,
   48.8756,       721,
   48.8958,       708,
    48.916,       731,
   48.9361,       726,
   48.9563,       648,
   48.9765,       781,
   48.9967,       744,
   49.0168,       740,
    49.037,       737,
   49.0572,       776,
   49.0773,       753,
   49.0975,       762,
   49.1177,       724,
   49.1378,       777,
    49.158,       779,
   49.1782,       761,
   49.1983,       789,
   49.2185,       757,
   49.2387,       788,
   49.2588,       735,
    49.279,       728,
   49.2992,       765,
   49.3193,       804,
   49.3395,       801,
   49.3597,       803,
   49.3799,       830,
      49.4,       777,
   49.4202,       805,
   49.4404,       799,
   49.4605,       731,
   49.4807,       831,
   49.5009,       761,
    49.521,       803,
   49.5412,       808,
   49.5614,       862,
   49.5815,       869,
   49.6017,       850,
   49.6219,       810,
    49.642,       845,
   49.6622,       911,
   49.6824,       843,
   49.7025,       752,
   49.7227,       925,
   49.7429,       859,
   49.7631,       932,
   49.7832,       911,
   49.8034,       906,
   49.8236,       919,
   49.8437,       944,
   49.8639,       929,
   49.8841,       930,
   49.9042,       934,
   49.9244,      1004,
   49.9446,      1086,
   49.9647,      1050,
   49.9849,      1073,
   50.0051,      1111,
   50.0252,      1145,
   50.0454,      1148,
   50.0656,      1236,
   50.0858,      1288,
   50.1059,      1286,
   50.1261,      1294,
   50.1463,      1358,
   50.1664,      1405,
   50.1866,      1488,
   50.2068,      1469,
   50.2269,      1647,
   50.2471,      1778,
   50.2673,      1792,
   50.2874,      1880,
   50.3076,      1909,
   50.3278,      2093,
   50.3479,      2210,
   50.3681,      2364,
   50.3883,      2477,
   50.4084,      2717,
   50.4286,      2756,
   50.4488,      2917,
    50.469,      3078,
   50.4891,      3201,
   50.5093,      3396,
   50.5295,      3553,
   50.5496,      3644,
   50.5698,      3832,
     50.59,      3771,
   50.6101,      3843,
   50.6303,      4003,
   50.6505,      3920,
   50.6706,      3880,
   50.6908,      3857,
    50.711,      3751,
   50.7311,      3671,
   50.7513,      3559,
   50.7715,      3373,
   50.7917,      3168,
   50.8118,      3141,
    50.832,      2936,
   50.8522,      2876,
   50.8723,      2613,
   50.8925,      2468,
   50.9127,      2350,
   50.9328,      2172,
    50.953,      2077,
   50.9732,      2056,
   50.9933,      1849,
   51.0135,      1758,
   51.0337,      1669,
   51.0538,      1609,
    51.074,      1538,
   51.0942,      1480,
   51.1143,      1344,
   51.1345,      1344,
   51.1547,      1271,
   51.1749,      1295,
    51.195,      1196,
   51.2152,      1197,
   51.2354,      1125,
   51.2555,      1107,
   51.2757,       983,
   51.2959,      1061,
    51.316,      1056,
   51.3362,       992,
   51.3564,       911,
   51.3765,       930,
   51.3967,       895,
   51.4169,       918,
    51.437,       943,
   51.4572,       931,
   51.4774,       860,
   51.4975,       857,
   51.5177,       855,
   51.5379,       826,
   51.5581,       794,
   51.5782,       812,
   51.5984,       773,
   51.6186,       804,
   51.6387,       734,
   51.6589,       769,
   51.6791,       737,
   51.6992,       780,
   51.7194,       734,
   51.7396,       736,
   51.7597,       701,
   51.7799,       720,
   51.8001,       733,
   51.8202,       701,
   51.8404,       731,
   51.8606,       740,
   51.8808,       675,
   51.9009,       713,
   51.9211,       690,
   51.9413,       670,
   51.9614,       673,
   51.9816,       631,
   52.0018,       679,
   52.0219,       668,
   52.0421,       674,
   52.0623,       706,
   52.0824,       692,
   52.1026,       665,
   52.1228,       676,
   52.1429,       664,
   52.1631,       658,
   52.1833,       708,
   52.2034,       684,
   52.2236,       691,
   52.2438,       700,
    52.264,       690,
   52.2841,       689,
   52.3043,       700,
   52.3245,       631,
   52.3446,       635,
   52.3648,       657,
    52.385,       688,
   52.4051,       704,
   52.4253,       663,
   52.4455,       666,
   52.4656,       677,
   52.4858,       679,
    52.506,       681,
   52.5261,       676,
   52.5463,       633,
   52.5665,       717,
   52.5866,       706,
   52.6068,       687,
    52.627,       666,
   52.6472,       638,
   52.6673,       681,
   52.6875,       643,
   52.7077,       672,
   52.7278,       662,
    52.748,       637,
   52.7682,       669,
   52.7883,       614,
   52.8085,       607,
   52.8287,       620,
   52.8488,       660,
    52.869,       607,
   52.8892,       658,
   52.9093,       689,
   52.9295,       608,
   52.9497,       658,
   52.9699,       645,
     52.99,       640,
   53.0102,       617,
   53.0304,       667,
   53.0505,       669,
   53.0707,       677,
   53.0909,       664,
    53.111,       646,
   53.1312,       631,
   53.1514,       617,
   53.1715,       651,
   53.1917,       647,
   53.2119,       678,
    53.232,       658,
   53.2522,       665,
   53.2724,       610,
   53.2925,       610,
   53.3127,       633,
   53.3329,       631,
   53.3531,       605,
   53.3732,       634,
   53.3934,       670,
   53.4136,       646,
   53.4337,       629,
   53.4539,       663,
   53.4741,       628,
   53.4942,       622,
   53.5144,       662,
   53.5346,       643,
   53.5547,       663,
   53.5749,       594,
   53.5951,       588,
   53.6152,       622,
   53.6354,       590,
   53.6556,       616,
   53.6757,       618,
   53.6959,       661,
   53.7161,       593,
   53.7363,       619,
   53.7564,       701,
   53.7766,       617,
   53.7968,       672,
   53.8169,       657,
   53.8371,       698,
   53.8573,       581,
   53.8774,       604,
   53.8976,       657,
   53.9178,       627,
   53.9379,       643,
   53.9581,       650,
   53.9783,       655,
   53.9984,       632,
   54.0186,       635,
   54.0388,       667,
    54.059,       635,
   54.0791,       632,
   54.0993,       638,
   54.1195,       580,
   54.1396,       680,
   54.1598,       614,
     54.18,       629,
   54.2001,       627,
   54.2203,       640,
   54.2405,       607,
   54.2606,       612,
   54.2808,       655,
    54.301,       631,
   54.3211,       616,
   54.3413,       607,
   54.3615,       601,
   54.3816,       633,
   54.4018,       663,
    54.422,       607,
   54.4422,       632,
   54.4623,       659,
   54.4825,       624,
   54.5027,       609,
   54.5228,       619,
    54.543,       632,
   54.5632,       600,
   54.5833,       657,
   54.6035,       609,
   54.6237,       656,
   54.6438,       614,
    54.664,       662,
   54.6842,       633,
   54.7043,       621,
   54.7245,       628,
   54.7447,       667,
   54.7648,       659,
    54.785,       614,
   54.8052,       597,
   54.8254,       607,
   54.8455,       648,
   54.8657,       667,
   54.8859,       615,
    54.906,       614,
   54.9262,       605,
   54.9464,       642,
   54.9665,       619,
   54.9867,       599,
   55.0069,       642,
    55.027,       611,
   55.0472,       604,
   55.0674,       612,
   55.0875,       586,
   55.1077,       595,
   55.1279,       633,
   55.1481,       584,
   55.1682,       630,
   55.1884,       634,
   55.2086,       596,
   55.2287,       590,
   55.2489,       683,
   55.2691,       579,
   55.2892,       625,
   55.3094,       587,
   55.3296,       631,
   55.3497,       628,
   55.3699,       634,
   55.3901,       619,
   55.4102,       643,
   55.4304,       667,
   55.4506,       598,
   55.4707,       631,
   55.4909,       628,
   55.5111,       650,
   55.5313,       621,
   55.5514,       606,
   55.5716,       611,
   55.5918,       661,
   55.6119,       657,
   55.6321,       604,
   55.6523,       604,
   55.6724,       616,
   55.6926,       622,
   55.7128,       593,
   55.7329,       574,
   55.7531,       587,
   55.7733,       619,
   55.7934,       620,
   55.8136,       642,
   55.8338,       640,
    55.854,       618,
   55.8741,       616,
   55.8943,       617,
   55.9145,       612,
   55.9346,       563,
   55.9548,       637,
    55.975,       641,
   55.9951,       595,
   56.0153,       625,
   56.0355,       606,
   56.0556,       642,
   56.0758,       646,
    56.096,       654,
   56.1161,       597,
   56.1363,       634,
   56.1565,       649,
   56.1766,       557,
   56.1968,       617,
    56.217,       632,
   56.2372,       614,
   56.2573,       579,
   56.2775,       588,
   56.2977,       604,
   56.3178,       595,
    56.338,       598,
   56.3582,       596,
   56.3783,       602,
   56.3985,       629,
   56.4187,       615,
   56.4388,       600,
    56.459,       584,
   56.4792,       621,
   56.4993,       615,
   56.5195,       613,
   56.5397,       649,
   56.5598,       592,
     56.58,       636,
   56.6002,       609,
   56.6204,       564,
   56.6405,       560,
   56.6607,       568,
   56.6809,       579,
    56.701,       590,
   56.7212,       628,
   56.7414,       627,
   56.7615,       626,
   56.7817,       601,
   56.8019,       602,
    56.822,       555,
   56.8422,       608,
   56.8624,       569,
   56.8825,       613,
   56.9027,       628,
   56.9229,       648,
   56.9431,       591,
   56.9632,       603,
   56.9834,       575,
   57.0036,       607,
   57.0237,       607,
   57.0439,       590,
   57.0641,       652,
   57.0842,       586,
   57.1044,       615,
   57.1246,       595,
   57.1447,       617,
   57.1649,       616,
   57.1851,       625,
   57.2052,       630,
   57.2254,       592,
   57.2456,       560,
   57.2657,       581,
   57.2859,       583,
   57.3061,       590,
   57.3263,       563,
   57.3464,       624,
   57.3666,       635,
   57.3868,       616,
   57.4069,       617,
   57.4271,       604,
   57.4473,       632,
   57.4674,       615,
   57.4876,       623,
   57.5078,       591,
   57.5279,       641,
   57.5481,       616,
   57.5683,       618,
   57.5884,       626,
   57.6086,       583,
   57.6288,       559,
   57.6489,       601,
   57.6691,       634,
   57.6893,       547,
   57.7095,       582,
   57.7296,       638,
   57.7498,       628,
     57.77,       568,
   57.7901,       565,
   57.8103,       624,
   57.8305,       612,
   57.8506,       570,
   57.8708,       606,
    57.891,       607,
   57.9111,       592,
   57.9313,       607,
   57.9515,       656,
   57.9716,       651,
   57.9918,       613,
    58.012,       558,
   58.0322,       585,
   58.0523,       595,
   58.0725,       559,
   58.0927,       625,
   58.1128,       570,
    58.133,       589,
   58.1532,       590,
   58.1733,       631,
   58.1935,       614,
   58.2137,       587,
   58.2338,       614,
    58.254,       581,
   58.2742,       590,
   58.2943,       640,
   58.3145,       626,
   58.3347,       628,
   58.3548,       591,
    58.375,       592,
   58.3952,       607,
   58.4154,       617,
   58.4355,       565,
   58.4557,       550,
   58.4759,       593,
    58.496,       632,
   58.5162,       557,
   58.5364,       606,
   58.5565,       567,
   58.5767,       610,
   58.5969,       609,
    58.617,       611,
   58.6372,       608,
   58.6574,       590,
   58.6775,       639,
   58.6977,       645,
   58.7179,       613,
    58.738,       596,
   58.7582,       578,
   58.7784,       595,
   58.7986,       619,
   58.8187,       589,
   58.8389,       590,
   58.8591,       639,
   58.8792,       645,
   58.8994,       584,
   58.9196,       616,
   58.9397,       576,
   58.9599,       572,
   58.9801,       591,
   59.0002,       630,
   59.0204,       604,
   59.0406,       596,
   59.0607,       595,
   59.0809,       615,
   59.1011,       582,
   59.1213,       594,
   59.1414,       605,
   59.1616,       577,
   59.1818,       603,
   59.2019,       575,
   59.2221,       611,
   59.2423,       601,
   59.2624,       567,
   59.2826,       618,
   59.3028,       576,
   59.3229,       617,
   59.3431,       610,
   59.3633,       644,
   59.3834,       617,
   59.4036,       613,
   59.4238,       616,
   59.4439,       594,
   59.4641,       616,
   59.4843,       590,
   59.5045,       595,
   59.5246,       635,
   59.5448,       592,
    59.565,       580,
   59.5851,       601,
   59.6053,       591,
   59.6255,       581,
   59.6456,       595,
   59.6658,       607,
    59.686,       631,
   59.7061,       630,
   59.7263,       594,
   59.7465,       573,
   59.7666,       645,
   59.7868,       647,
    59.807,       642,
   59.8271,       593,
   59.8473,       598,
   59.8675,       601,
   59.8877,       585,
   59.9078,       594,
    59.928,       598,
   59.9482,       587,
   59.9683,       572,
   59.9885,       591,
   60.0087,       611,
   60.0288,       592,
    60.049,       597,
   60.0692,       581,
   60.0893,       625,
   60.1095,       599,
   60.1297,       598,
   60.1498,       599,
     60.17,       613,
   60.1902,       613,
   60.2104,       622,
   60.2305,       593,
   60.2507,       605,
   60.2709,       587,
    60.291,       575,
   60.3112,       622,
   60.3314,       622,
   60.3515,       585,
   60.3717,       629,
   60.3919,       638,
    60.412,       618,
   60.4322,       621,
   60.4524,       595,
   60.4725,       527,
   60.4927,       626,
   60.5129,       622,
    60.533,       645,
   60.5532,       624,
   60.5734,       616,
   60.5936,       568,
   60.6137,       599,
   60.6339,       609,
   60.6541,       579,
   60.6742,       590,
   60.6944,       631,
   60.7146,       565,
   60.7347,       622,
   60.7549,       604,
   60.7751,       607,
   60.7952,       599,
   60.8154,       574,
   60.8356,       596,
   60.8557,       590,
   60.8759,       632,
   60.8961,       612,
   60.9163,       632,
   60.9364,       613,
   60.9566,       556,
   60.9768,       593,
   60.9969,       622,
   61.0171,       608,
   61.0373,       608,
   61.0574,       553,
   61.0776,       569,
   61.0978,       561,
   61.1179,       602,
   61.1381,       603,
   61.1583,       573,
   61.1784,       596,
   61.1986,       606,
   61.2188,       594,
   61.2389,       605,
   61.2591,       592,
   61.2793,       545,
   61.2995,       637,
   61.3196,       590,
   61.3398,       610,
     61.36,       575,
   61.3801,       590,
   61.4003,       573,
   61.4205,       618,
   61.4406,       578,
   61.4608,       555,
    61.481,       602,
   61.5011,       635,
   61.5213,       599,
   61.5415,       611,
   61.5616,       619,
   61.5818,       608,
    61.602,       631,
   61.6221,       559,
   61.6423,       605,
   61.6625,       583,
   61.6827,       587,
   61.7028,       578,
    61.723,       634,
   61.7432,       574,
   61.7633,       605,
   61.7835,       611,
   61.8037,       549,
   61.8238,       602,
    61.844,       581,
   61.8642,       559,
   61.8843,       557,
   61.9045,       598,
   61.9247,       627,
   61.9448,       560,
    61.965,       567,
   61.9852,       633,
   62.0054,       593,
   62.0255,       621,
   62.0457,       620,
   62.0659,       589,
    62.086,       594,
   62.1062,       588,
   62.1264,       599,
   62.1465,       607,
   62.1667,       613,
   62.1869,       564,
    62.207,       595,
   62.2272,       546,
   62.2474,       545,
   62.2675,       577,
   62.2877,       582,
   62.3079,       634,
    62.328,       575,
   62.3482,       583,
   62.3684,       581,
   62.3886,       570,
   62.4087,       553,
   62.4289,       591,
   62.4491,       598,
   62.4692,       599,
   62.4894,       560,
   62.5096,       576,
   62.5297,       570,
   62.5499,       600,
   62.5701,       614,
   62.5902,       571,
   62.6104,       606,
   62.6306,       588,
   62.6507,       606,
   62.6709,       575,
   62.6911,       585,
   62.7112,       553,
   62.7314,       589,
   62.7516,       613,
   62.7718,       589,
   62.7919,       608,
   62.8121,       551,
   62.8323,       591,
   62.8524,       623,
   62.8726,       572,
   62.8928,       613,
   62.9129,       582,
   62.9331,       584,
   62.9533,       619,
   62.9734,       628,
   62.9936,       592,
   63.0138,       561,
   63.0339,       571,
   63.0541,       612,
   63.0743,       563,
   63.0945,       551,
   63.1146,       621,
   63.1348,       585,
    63.155,       602,
   63.1751,       589,
   63.1953,       592,
   63.2155,       578,
   63.2356,       606,
   63.2558,       597,
    63.276,       577,
   63.2961,       561,
   63.3163,       621,
   63.3365,       598,
   63.3566,       546,
   63.3768,       572,
    63.397,       576,
   63.4171,       623,
   63.4373,       566,
   63.4575,       591,
   63.4777,       580,
   63.4978,       589,
    63.518,       600,
   63.5382,       592,
   63.5583,       565,
   63.5785,       614,
   63.5987,       555,
   63.6188,       592,
    63.639,       611,
   63.6592,       597,
   63.6793,       595,
   63.6995,       569,
   63.7197,       569,
   63.7398,       575,
     63.76,       537,
   63.7802,       572,
   63.8003,       611,
   63.8205,       570,
   63.8407,       567,
   63.8609,       554,
    63.881,       614,
   63.9012,       543,
   63.9214,       570,
   63.9415,       588,
   63.9617,       598,
   63.9819,       615,
    64.002,       594,
   64.0222,       597,
   64.0424,       620,
   64.0625,       567,
   64.0827,       591,
   64.1029,       562,
    64.123,       545,
   64.1432,       638,
   64.1634,       599,
   64.1836,       603,
   64.2037,       580,
   64.2239,       608,
   64.2441,       568,
   64.2642,       605,
   64.2844,       576,
   64.3046,       597,
   64.3247,       562,
   64.3449,       578,
   64.3651,       607,
   64.3852,       605,
   64.4054,       546,
   64.4256,       617,
   64.4457,       575,
   64.4659,       585,
   64.4861,       558,
   64.5062,       561,
   64.5264,       617,
   64.5466,       570,
   64.5668,       570,
   64.5869,       595,
   64.6071,       593,
   64.6273,       597,
   64.6474,       570,
   64.6676,       596,
   64.6878,       581,
   64.7079,       597,
   64.7281,       595,
   64.7483,       614,
   64.7684,       594,
   64.7886,       590,
   64.8088,       624,
   64.8289,       594,
   64.8491,       594,
   64.8693,       605,
   64.8894,       568,
   64.9096,       571,
   64.9298,       605,
     64.95,       621,
   64.9701,       575,
   64.9903,       602,
   65.0105,       559,
   65.0306,       615,
   65.0508,       538,
    65.071,       557,
   65.0911,       618,
   65.1113,       569,
   65.1315,       601,
   65.1516,       507,
   65.1718,       569,
    65.192,       595,
   65.2121,       589,
   65.2323,       602,
   65.2525,       582,
   65.2727,       582,
   65.2928,       641,
    65.313,       560,
   65.3332,       566,
   65.3533,       569,
   65.3735,       576,
   65.3937,       580,
   65.4138,       579,
    65.434,       582,
   65.4542,       582,
   65.4743,       605,
   65.4945,       573,
   65.5147,       552,
   65.5348,       627,
    65.555,       625,
   65.5752,       606,
   65.5953,       548,
   65.6155,       553,
   65.6357,       627,
   65.6559,       555,
    65.676,       585,
   65.6962,       588,
   65.7164,       583,
   65.7365,       594,
   65.7567,       562,
   65.7769,       613,
    65.797,       565,
   65.8172,       558,
   65.8374,       617,
   65.8575,       624,
   65.8777,       607,
   65.8979,       610,
    65.918,       583,
   65.9382,       607,
   65.9584,       532,
   65.9786,       608,
   65.9987,       561,
   66.0189,       592,
   66.0391,       565,
   66.0592,       572,
   66.0794,       605,
   66.0996,       607,
   66.1197,       591,
   66.1399,       609,
   66.1601,       569,
   66.1802,       608,
   66.2004,       611,
   66.2206,       557,
   66.2407,       595,
   66.2609,       549,
   66.2811,       614,
   66.3012,       592,
   66.3214,       609,
   66.3416,       580,
   66.3618,       606,
   66.3819,       592,
   66.4021,       567,
   66.4223,       575,
   66.4424,       630,
   66.4626,       607,
   66.4828,       585,
   66.5029,       591,
   66.5231,       602,
   66.5433,       628,
   66.5634,       585,
   66.5836,       620,
   66.6038,       613,
   66.6239,       572,
   66.6441,       577,
   66.6643,       613,
   66.6844,       603,
   66.7046,       578,
   66.7248,       595,
    66.745,       585,
   66.7651,       609,
   66.7853,       581,
   66.8055,       596,
   66.8256,       618,
   66.8458,       586,
    66.866,       592,
   66.8861,       602,
   66.9063,       631,
   66.9265,       575,
   66.9466,       617,
   66.9668,       574,
    66.987,       570,
   67.0071,       614,
   67.0273,       605,
   67.0475,       580,
   67.0677,       588,
   67.0878,       592,
    67.108,       584,
   67.1282,       571,
   67.1483,       563,
   67.1685,       601,
   67.1887,       548,
   67.2088,       544,
    67.229,       554,
   67.2492,       533,
   67.2693,       617,
   67.2895,       574,
   67.3097,       581,
   67.3298,       561,
     67.35,       593,
   67.3702,       650,
   67.3903,       550,
   67.4105,       566,
   67.4307,       560,
   67.4509,       583,
    67.471,       597,
   67.4912,       555,
   67.5114,       591,
   67.5315,       565,
   67.5517,       568,
   67.5719,       611,
    67.592,       547,
   67.6122,       617,
   67.6324,       582,
   67.6525,       560,
   67.6727,       611,
   67.6929,       605,
    67.713,       596,
   67.7332,       572,
   67.7534,       591,
   67.7735,       571,
   67.7937,       597,
   67.8139,       600,
   67.8341,       573,
   67.8542,       566,
   67.8744,       573,
   67.8946,       625,
   67.9147,       565,
   67.9349,       613,
   67.9551,       576,
   67.9752,       585,
   67.9954,       585,
   68.0156,       623,
   68.0357,       564,
   68.0559,       596,
   68.0761,       552,
   68.0962,       585,
   68.1164,       555,
   68.1366,       601,
   68.1568,       586,
   68.1769,       566,
   68.1971,       587,
   68.2173,       602,
   68.2374,       657,
   68.2576,       640,
   68.2778,       604,
   68.2979,       585,
   68.3181,       561,
   68.3383,       587,
   68.3584,       570,
   68.3786,       610,
   68.3988,       555,
   68.4189,       589,
   68.4391,       591,
   68.4593,       591,
   68.4794,       538,
   68.4996,       564,
   68.5198,       564,
     68.54,       580,
   68.5601,       596,
   68.5803,       575,
   68.6005,       543,
   68.6206,       549,
   68.6408,       575,
    68.661,       594,
   68.6811,       522,
   68.7013,       542,
   68.7215,       598,
   68.7416,       625,
   68.7618,       611,
    68.782,       620,
   68.8021,       592,
   68.8223,       587,
   68.8425,       544,
   68.8626,       579,
   68.8828,       551,
    68.903,       597,
   68.9232,       535,
   68.9433,       613,
   68.9635,       582,
   68.9837,       564,
   69.0038,       585,
    69.024,       551,
   69.0442,       584,
   69.0643,       586,
   69.0845,       547,
   69.1047,       595,
   69.1248,       598,
    69.145,       585,
   69.1652,       542,
   69.1853,       594,
   69.2055,       616,
   69.2257,       564,
   69.2459,       585,
    69.266,       572,
   69.2862,       575,
   69.3064,       571,
   69.3265,       630,
   69.3467,       571,
   69.3669,       570,
    69.387,       567,
   69.4072,       582,
   69.4274,       624,
   69.4475,       580,
   69.4677,       583,
   69.4879,       569,
    69.508,       579,
   69.5282,       564,
   69.5484,       528,
   69.5685,       609,
   69.5887,       580,
   69.6089,       583,
   69.6291,       562,
   69.6492,       593,
   69.6694,       611,
   69.6896,       570,
   69.7097,       569,
   69.7299,       576,
   69.7501,       570,
   69.7702,       571,
   69.7904,       576,
   69.8106,       575,
   69.8307,       543,
   69.8509,       583,
   69.8711,       567,
   69.8912,       567,
   69.9114,       562,
   69.9316,       562,
   69.9517,       563,
   69.9719,       569,
   69.9921,       620,
   70.0123,       609,
   70.0324,       610,
   70.0526,       605,
   70.0728,       576,
   70.0929,       562,
   70.1131,       576,
   70.1333,       624,
   70.1534,       547,
   70.1736,       613,
   70.1938,       582,
   70.2139,       584,
   70.2341,       589,
   70.2543,       569,
   70.2744,       579,
   70.2946,       632,
   70.3148,       559,
    70.335,       587,
   70.3551,       579,
   70.3753,       594,
   70.3955,       562,
   70.4156,       573,
   70.4358,       544,
    70.456,       539,
   70.4761,       600,
   70.4963,       551,
   70.5165,       571,
   70.5366,       612,
   70.5568,       614,
    70.577,       541,
   70.5971,       543,
   70.6173,       557,
   70.6375,       612,
   70.6576,       594,
   70.6778,       579,
    70.698,       586,
   70.7182,       577,
   70.7383,       619,
   70.7585,       596,
   70.7787,       593,
   70.7988,       563,
    70.819,       571,
   70.8392,       583,
   70.8593,       576,
   70.8795,       600,
   70.8997,       571,
   70.9198,       589,
     70.94,       592,
   70.9602,       569,
   70.9803,       595,
   71.0005,       598,
   71.0207,       611,
   71.0409,       614,
    71.061,       544,
   71.0812,       611,
   71.1014,       584,
   71.1215,       598,
   71.1417,       567,
   71.1619,       590,
    71.182,       597,
   71.2022,       548,
   71.2224,       585,
   71.2425,       575,
   71.2627,       590,
   71.2829,       561,
    71.303,       615,
   71.3232,       582,
   71.3434,       581,
   71.3635,       592,
   71.3837,       588,
   71.4039,       579,
   71.4241,       565,
   71.4442,       591,
   71.4644,       606,
   71.4846,       551,
   71.5047,       600,
   71.5249,       564,
   71.5451,       624,
   71.5652,       584,
   71.5854,       585,
   71.6056,       563,
   71.6257,       583,
   71.6459,       566,
   71.6661,       573,
   71.6862,       589,
   71.7064,       574,
   71.7266,       595,
   71.7467,       581,
   71.7669,       586,
   71.7871,       588,
   71.8073,       603,
   71.8274,       604,
   71.8476,       638,
   71.8678,       605,
   71.8879,       585,
   71.9081,       588,
   71.9283,       574,
   71.9484,       618,
   71.9686,       578,
   71.9888,       586,
   72.0089,       575,
   72.0291,       633,
   72.0493,       612,
   72.0694,       601,
   72.0896,       589,
   72.1098,       599,
     72.13,       603,
   72.1501,       603,
   72.1703,       580,
   72.1905,       583,
   72.2106,       558,
   72.2308,       550,
    72.251,       568,
   72.2711,       606,
   72.2913,       590,
   72.3115,       608,
   72.3316,       557,
   72.3518,       585,
    72.372,       572,
   72.3921,       581,
   72.4123,       614,
   72.4325,       597,
   72.4526,       597,
   72.4728,       585,
    72.493,       627,
   72.5132,       610,
   72.5333,       576,
   72.5535,       604,
   72.5737,       602,
   72.5938,       625,
    72.614,       629,
   72.6342,       591,
   72.6543,       635,
   72.6745,       593,
   72.6947,       626,
   72.7148,       601,
    72.735,       584,
   72.7552,       634,
   72.7753,       609,
   72.7955,       603,
   72.8157,       649,
   72.8358,       594,
    72.856,       600,
   72.8762,       620,
   72.8964,       634,
   72.9165,       603,
   72.9367,       608,
   72.9569,       589,
    72.977,       636,
   72.9972,       566,
   73.0174,       625,
   73.0375,       599,
   73.0577,       601,
   73.0779,       602,
    73.098,       570,
   73.1182,       661,
   73.1384,       583,
   73.1585,       584,
   73.1787,       589,
   73.1989,       679,
   73.2191,       654,
   73.2392,       615,
   73.2594,       632,
   73.2796,       690,
   73.2997,       643,
   73.3199,       627,
   73.3401,       612,
   73.3602,       604,
   73.3804,       650,
   73.4006,       667,
   73.4207,       656,
   73.4409,       670,
   73.4611,       690,
   73.4812,       652,
   73.5014,       675,
   73.5216,       638,
   73.5417,       700,
   73.5619,       664,
   73.5821,       674,
   73.6023,       675,
   73.6224,       681,
   73.6426,       719,
   73.6628,       712,
   73.6829,       666,
   73.7031,       710,
   73.7233,       743,
   73.7434,       742,
   73.7636,       739,
   73.7838,       788,
   73.8039,       813,
   73.8241,       829,
   73.8443,       856,
   73.8644,       860,
   73.8846,       870,
   73.9048,       864,
   73.9249,       849,
   73.9451,       894,
   73.9653,       937,
   73.9855,       911,
   74.0056,       950,
   74.0258,      1049,
    74.046,      1112,
   74.0661,      1127,
   74.0863,      1132,
   74.1065,      1203,
   74.1266,      1179,
   74.1468,      1272,
    74.167,      1281,
   74.1871,      1356,
   74.2073,      1421,
   74.2275,      1416,
   74.2476,      1459,
   74.2678,      1480,
    74.288,      1465,
   74.3082,      1474,
   74.3283,      1428,
   74.3485,      1367,
   74.3687,      1460,
   74.3888,      1424,
    74.409,      1381,
   74.4292,      1430,
   74.4493,      1299,
   74.4695,      1378,
   74.4897,      1298,
   74.5098,      1165,
     74.53,      1228,
   74.5502,      1201,
   74.5703,      1168,
   74.5905,      1133,
   74.6107,      1099,
   74.6308,      1011,
    74.651,      1051,
   74.6712,       986,
   74.6914,       951,
   74.7115,       866,
   74.7317,       945,
   74.7519,       847,
    74.772,       825,
   74.7922,       802,
   74.8124,       848,
   74.8325,       812,
   74.8527,       804,
   74.8729,       698,
    74.893,       814,
   74.9132,       785,
   74.9334,       725,
   74.9535,       731,
   74.9737,       709,
   74.9939,       711,
    75.014,       674,
   75.0342,       671,
   75.0544,       676,
   75.0746,       657,
   75.0947,       694,
   75.1149,       675,
   75.1351,       623,
   75.1552,       667,
   75.1754,       637,
   75.1956,       638,
   75.2157,       659,
   75.2359,       628,
   75.2561,       623,
   75.2762,       624,
   75.2964,       599,
   75.3166,       611,
   75.3367,       613,
   75.3569,       635,
   75.3771,       642,
   75.3973,       624,
   75.4174,       605,
   75.4376,       631,
   75.4578,       570,
   75.4779,       610,
   75.4981,       601,
   75.5183,       615,
   75.5384,       591,
   75.5586,       609,
   75.5788,       588,
   75.5989,       609,
   75.6191,       609,
   75.6393,       605,
   75.6594,       646,
   75.6796,       625,
   75.6998,       580,
   75.7199,       645,
   75.7401,       617,
   75.7603,       561,
   75.7805,       589,
   75.8006,       581,
   75.8208,       581,
    75.841,       599,
   75.8611,       624,
   75.8813,       561,
   75.9015,       613,
   75.9216,       602,
   75.9418,       592,
    75.962,       563,
   75.9821,       578,
   76.0023,       546,
   76.0225,       602,
   76.0426,       578,
   76.0628,       609,
    76.083,       573,
   76.1032,       585,
   76.1233,       621,
   76.1435,       596,
   76.1637,       575,
   76.1838,       568,
    76.204,       576,
   76.2242,       601,
   76.2443,       642,
   76.2645,       544,
   76.2847,       579,
   76.3048,       586,
    76.325,       545,
   76.3452,       624,
   76.3653,       628,
   76.3855,       595,
   76.4057,       590,
   76.4258,       588,
    76.446,       575,
   76.4662,       607,
   76.4864,       592,
   76.5065,       561,
   76.5267,       563,
   76.5469,       571,
    76.567,       606,
   76.5872,       539,
   76.6074,       582,
   76.6275,       635,
   76.6477,       627,
   76.6679,       562,
    76.688,       565,
   76.7082,       600,
   76.7284,       638,
   76.7485,       610,
   76.7687,       580,
   76.7889,       601,
    76.809,       598,
   76.8292,       613,
   76.8494,       571,
   76.8696,       552,
   76.8897,       607,
   76.9099,       636,
   76.9301,       599,
   76.9502,       543,
   76.9704,       589,
   76.9906,       569,
   77.0107,       577,
   77.0309,       556,
   77.0511,       571,
   77.0712,       586,
   77.0914,       621,
   77.1116,       578,
   77.1317,       601,
   77.1519,       591,
   77.1721,       596,
   77.1923,       615,
   77.2124,       592,
   77.2326,       594,
   77.2528,       598,
   77.2729,       584,
   77.2931,       587,
   77.3133,       602,
   77.3334,       572,
   77.3536,       614,
   77.3738,       592,
   77.3939,       610,
   77.4141,       591,
   77.4343,       579,
   77.4544,       592,
   77.4746,       567,
   77.4948,       584,
   77.5149,       552,
   77.5351,       575,
   77.5553,       587,
   77.5755,       588,
   77.5956,       549,
   77.6158,       596,
    77.636,       605,
   77.6561,       594,
   77.6763,       603,
   77.6965,       563,
   77.7166,       560,
   77.7368,       611,
    77.757,       600,
   77.7771,       604,
   77.7973,       582,
   77.8175,       554,
   77.8376,       569,
   77.8578,       628,
    77.878,       582,
   77.8981,       549,
   77.9183,       613,
   77.9385,       576,
   77.9587,       622,
   77.9788,       559,
    77.999,       563,
