;RAW4.00
[RawHeader]
Date=11/26/2025
EstimatedTotalTime=426.6
FurtherDQLReading=0
HardwareIndicator=65519
MeasuredTotalTime=4.29364
MeasurementFlag=1
NumberOfMeasuredRanges=1
NumberOfRanges=1
Time=03:30:28

[VarInfo]
Type=USER
Flags=0
Value=Lab Manager

[VarInfo]
Type=SAMPLEID
Flags=0
Value=Commander Sample ID

[VarInfo]
Type=COMMENT
Flags=0
Value=

[VarInfo]
Type=UTF
Flags=0
Value=

[VarInfo]
Type=CREATOR
Flags=0
Value=V5Converter

[VarInfo]
Type=CREATOR_VERSION
Flags=0
Value=4.4.16.0

[HardwareConfiguration]
AbsorptionFactor=9999
ActivateAbsorber=0
Alpha1=1.5406
Alpha2=1.54439
AlphaAverage=1.54184
AlphaRatio=0.5
Analyzer=0
Anode=Cu
AntiScatteringSlit=9999
BeamOpticsFlags=0
Beta=1.39222
BetaRelativeIntensity=0
DeactivateAbsorber=0
DetectorSlit=9999
DivergenceSlit=9999
GoniometerControl=0
GoniometerDiameter=282
GoniometerModel=256
GoniometerStage=7
Monochromator=0
NearSampleSlit=9999
PrimarySollerSlit=9999
SampleChanger=0
SecondSollerSlit=9999
SynchronousAxis=0
ThinFilmAttachment=9999
WaveUnit=A

[RangeHeader]
ActuallyUsedLambda=1.54184
AdditionalDetectorMask=257
DataRecordLength=4
DelayTime=0
DisplayPlaneNumber=0
EstimatedScanTime=427
ExtraParametersMask=0
GeneratorCurrent=10
GeneratorVoltage=30
Increment=0.0201685
Increment3=0
NumberOfCompletedData=1885
NumberOfCounts=1
NumberOfDetectors=0
NumberOfDrives=3
NumberOfEncoderDrives=0
NumberOfMeasuredData=1885
NumberOfVaryingParameters=0
RangeStartTime=0
RotationSpeed=0
ScanMode=1
ScanType=Locked Coupled
SimulatedMeasConditions=0
SlitChangerIn=0
SmootingWidth=0
Start=40.0015
Steps=1885
SynchronousRotation=0
Time=33

[VarInfo]
Type=PSD_DISCRIM
Flags=0
Value=0.11;0.5

[VarInfo]
Type=OPTICS_V5
Flags=0
Value=H4sIAAAAAAAEAO1d63KjOhJ+Fda/zqmtBIPtXKaITzm2J+OaOHbFTnKmtrZcBORYZzC4AOey//d99hl2X2x1QViIS8C3JBN+TCaodWm6+2vUUkfS/nieW9IjcD3o2GcV5bBakYBtOCa0H84qS396oBxV/mhqF44NnTnwgdt25gvHBrbf0X1dQq1t78uzB88qM99ffJHlp6enw6faoeM+yGq1qsh/9i9HxgzM9QNoe75uG6AStjJfb1WRbqEH7y1wpc/BWWXFR0joAM9w4cInL/Bj4UHLsSW+3oXrLBc9NBZ6t3Pgojcb3P8FDH+o+7OzitwBj9AAMt+CrxUfl1Lblu55QRehTORzoM8XqLDt2L4ObeBy/coBc6yHluEvdYtxoR6o1ePT02O5h8TkLue4tzhrTW2EZGjqqBswQr3oFvyXjl+9OdUtD2hyGln7c259hcAyrwHqHhq4EDFpA/KbJ8lNjfKD1ToCFipvdm00JDA1OUbR6Btwou9Ab2HpL824AjQ5tXK8m+bF4OrHhPzodEft64TGrBVWDOsoPhpP1bBWhrxWvISy1r0hIUP+4r8skMLHrm78xG8sGODQhXPdfSHkZBMMakgD9GxISBvSeHkPOIFIQeOidilHx44baRI9r5mSRmyEDSxUYBJZ3blu/xy4JnCvAfYzAL0wsdX3b8s5NVnMwIfj6+8T9KPV/l7IxHm5Jhp5z0OvBh9BE+kGCS98DAk920dCZMIVSikeHA9SJulgmhwp1bAq2ZMXfZT4B2LSAxc+QFu3ogSlwl6OWi7Ssb/0moPwnSLFGmsYPPedJdIj0qJQrgWE0MJ5JCOdEXICmjFtjmnJUA7J0tRxpRHQLUBtYA3AytxYcejGiMm4JZa46kmmLG0LrhEWBa3xcus++8A2MZDfDYZpCWdMkQKtj5nwHfcltGVFk+OFGseMJxH2qHoYWND7cnJosmJN5ku1uCnh1+H65qyTKx3Y545jAR1NEG5s6BPpdiDSG56bXcI59IlYwiKvWdVk7knrgKm+tPxb3VoCboigVyQ96CPXTshnFewlKri/oQta5l9LD8GnYEuZYx67mbHTJoqe6ZblPK0cjVCOarZnwPgJzFUVVqC1ESPOHKsWvx33pNH5Zl7erhEyxkg2xVq1lr7TdoHug6HrLIDrvzAWEyiR9/eIRfdMhLKr5fweuE21rslCEdaQRS08UPF//xMyUSUc9B0TNG8Quqbos4xMnTwz90Y+PzEHluy7tuWt5HgP/ND5vNXOHBXjLvaN2aNbYuh5A79Evm3IJvErCL6JJ23LP418rD3OPSHRTOHDEjnla/gw85sIdabECnU0BoKwUKWYS+vrz5fAfvBnTbXRwKJhj2nOjrJISkNktZevObqMVm/q5DL4SnFwGS02cm5pFninPwKqkpa1mOmKYIUieVuWOJh2nCVqyWzxf//ehzWm2Nxw9uJBQ7dIeQJnTA/KYaNePXrNFtfo7ca2MPfItOjcf/WMZelYS+paugfVBtErK9H60Ibz5bx5oBwenx4fndaUWv3kSK0pjePu32vVE4S4oAZGIvklvWZQ4W0Rs4b0UpC0Rk/7QJiajTD10yOsXjvdJsRYdyXGNhLfFkDGuto1yh6Bqz+IoV6M/ulxppzUt4kz1l2Js43EtwWcsa52jLNz4OupIMPET46w2qmqqttD2Kq7EmEbiW9jhK262jHCrvGaRirECHVXGHuvCFutth02NsJWrKMSVWsKbh08xTrZCZK+OsbSG7gQ2D5ZHRSgJJK3tspG1g4H057tH9XfH6CibEVXr/OjKbkXhfRCBYDfqOeDOWLs0nmABl3VvJn0rm5bl73OpP2tN9TkFYkJfAye/WbPftQtiMQzg4uVjCJaIvW07+CFjI1lEf6uyTEWsnm67F2lsnIJbSARW0kbWtlk6OEgY+yhA20/e3B1k8GZLoaD0auqCHeKD6S58wgk35HmwJjpNrYKCTmTxd/SeKxl8/ienF2WXefzdFk9bOTm6N5Lz546UqiqhAVciZbr3FOQY3BWIVUkVBrdJr+ZtC6H31rRcrGRhEeyyEjkXXKxo0bYURPZUVPYUbPYUQuzEywL8PxEyoQBQloib5PW7UUWe0HrokySmCrg8D78PeybkkWGzrvjVjIvuH4+FiIbUQEDqBXeyxN46LJSkY3uZbffvRqnSMV2TCAFbaXVSDlkQmfBvNq4EkHsASVZZdetcW+QpTTSOp+8YlOLgL9pYnk4ToQicvl10J4MrpMZJONJkeZyfMe6Ed+xvgA2skTfcYU8TFacvPmcsQFLZ8dr7r82tXQiP3O7dSw/voYXlO4q5vl5u6WEjcypLxqFfRNqVSHyCL4FKaFHctihVBMCjFp1f7FErbF+MBEXRsEvZLo55TW19tJ1sT+LmlpQuitTm7f2YWpolHD6sQ1TaySFsh/E0uKy2LulDZ0nkgHOmxQp25WV3aUEnW+xcHMnRJr5lluqhymm+EkWW+4491hde7Ul3ssWbV9+7YtfJA0UTQyNGXBfyVbbPA8ud74bklUw60j9YgWfilQ/I4dzraYmBmuZ2QhiKJW9qxqLdLI3h6IxR/YytzAXT1vD42MIIXVJnC4nR8cylyaJ7OZRhxZeJcCPHu2eWH2ZQFkmUJYJlGUCZZlA+fE2xcsEyvezJV4mUP6aCCsTKN8TxsoEyl8VZ2UC5XvCWZlA+ashrEygfE8IKxMoywTKMoGyTKAsEyjLBMoygbJMoCwTKMsEyjKBskygLBMoywTKMoGyTKAsEyjLBMoygbJMoHzr+KNMoCwTKD9tAiXLkUS/iumT7KzT+Cmg4tm7GScqd+cL/4UkG4arGcVOT+72h4PRhP4scnoyGTg0xcTzk2U+BzLzcGMl7XBjde+HGw8WbefceR5MR45lATfhiGNKyDjkmKsg/WbotmTQQ8ElNJZEifQE7N/XgX9k+LhXSSBnuYaE6hunwkb7FPSZfOxxRGTIPPKL8PePe2KymphYK0bAR+scevtxXAin6Q2diJrmRGpv50S+wmdgEkNlcw/RmVjQz3IliCz1U2CAaRv4kdXICV5EJGb6ELHy5h6E61FQZYr/YA2o98gntQ/sOmq5XMfxeudlE7OmVzSsTJpYMhZe0hcRy1SR/jGf/zPDjH/DR/7fA2QfErQ9hAVgol98R9I5hWWaMq5mhBds4KeJUp0oaQYcIb5mwIVtN52ZmPP5qH/5US30lx930PRnYm4HLtvZktP8/WxBxzgL44DNsuvjPeVdZqh+7nWGuODWWWeI97KTtI5vABumgB1a+LnBszXslNBZz+i3gpzt3wSirjOzGenzhQXuZgBYY/QC/KUgIkkjH65UJ0ChmfamMj+F+lCxGJtFbxiJ1dIisfpGkRjhMR6HvT9h3thLD5hkeHHgLInKwm1g17oJl16CldWVYB+fXrg3mE494KdZfesZevz3Iay2B1ceYybnbh1ywVU1LSlVPTypn6qNRkNN8LvHjcOTRv24dqQqvK8VhNAM7mETbitc+w7DEUCRgJl9i2FYh7v9roNCXwNnMmzhLkORh4SYKLFGsfsMwz42ifVFRj70nYaF9FrM/4zwzYaj4jcbRuW787sNw+F2cbvhyRss3uHlOks3wMyxzMQtgMsX+xm8pBxzcfnj6s/ujy654bCjSsOZ7olX4OYEsRyOEwezQMpa3mDWKOO8X3k4Wj2jProvYAvX6KYzLmrzl7v28CTPUlxNiU9Yi8wL0ecUu0XdWrmWfniNJk2pxn6HJHazGl4xZ9PpjyfkXwFHw4ba6R6gstmscZebgP09bgIKCIswkLYN2N/zNmAmj6JSs3YC+59rJ1Cp53Ii1c+wFVhGSkUjpbRAqXF4dHrSUJRqPWmBqqEcHldP68dqfQeB0sontAHGieA9hcKI4+SmzLSadMAw70kjnLfkkW8dVkPLMIDnOS4E3hoRE+Mi7j2jlLwRUvyl1/ekrIcPHRqtqcpiLudicNWekB9FHA7lZ+eh0Ri4qHQnkdHp3mdFwxkkShPAfO0EGXBRYgTUqKlErdE1Wb0CGJXZGHSdNqGDKCsJ1TJnP6vqMuJUZpxuDuAUxgVFpsREEgUYMFu+rxszPNBZ5WDPRwluc5pzmitr4SQ+y+l5TBQhKMMCjfMcZLfIWj48ALPjYkzSv8ZE3eHvWs9sIu2S3oNHTCEVRwtgwGnwt6KsUpyC4BLvvcgEK46DYs5u+K03mpAfRZxdFKHbnGBVi0yvQisOP5lEYfRDEPwf22IqXU7pckqXI7qcECvsd+8VLsZPznhGTjB6jZVIzZz8ZA+dc9yig6ZEJvFifFQxXo8YAd9H0PIkfi6GHAXNPKxILbzB7vVR6AbplI5NtLGOuVT/5i2e1Rn4EFu+VFtBkewhB6uqmiyUa3yqI/WAkWUTj/6JxSqYYK6D6Pv/u9RXv2COAAA=

[PSD]
ActualTwoTheta=9999
FirstUsedChannel=0
FixedPSD=0
PSDOpening=4.99171
PSDType=5

[Drive]
DriveFlags=1
DriveName=2Theta
DriveNumber=2
DriveOffset=0
OffsetIndex=0
OscillationAmplitude=0
OscillationSpeed=0
StartPosition=40.0015

[Drive]
DriveFlags=1
DriveName=Theta
DriveNumber=1
DriveOffset=0
OffsetIndex=0
OscillationAmplitude=0
OscillationSpeed=0
StartPosition=20.0007

[Drive]
DriveFlags=1
DriveName=Phi
DriveNumber=3
DriveOffset=0
OffsetIndex=0
OscillationAmplitude=0
OscillationSpeed=0
StartPosition=0

[Data]
     Angle,       PSD,
   40.0015,       654,
   40.0217,       667,
   40.0418,       610,
    40.062,       626,
   40.0822,       652,
   40.1023,       673,
   40.1225,       628,
   40.1427,       588,
   40.1628,       615,
    40.183,       688,
   40.2032,       665,
   40.2233,       608,
   40.2435,       635,
   40.2637,       597,
   40.2838,       616,
    40.304,       594,
   40.3242,       622,
   40.3444,       665,
   40.3645,       649,
   40.3847,       650,
   40.4049,       596,
    40.425,       625,
   40.4452,       676,
   40.4654,       683,
   40.4855,       645,
   40.5057,       650,
   40.5259,       659,
    40.546,       637,
   40.5662,       645,
   40.5864,       664,
   40.6065,       655,
   40.6267,       636,
   40.6469,       635,
   40.6671,       650,
   40.6872,       613,
   40.7074,       648,
   40.7276,       636,
   40.7477,       655,
   40.7679,       598,
   40.7881,       674,
   40.8082,       639,
   40.8284,       624,
   40.8486,       619,
   40.8687,       677,
   40.8889,       655,
   40.9091,       648,
   40.9292,       657,
   40.9494,       633,
   40.9696,       691,
   40.9897,       647,
   41.0099,       613,
   41.0301,       629,
   41.0503,       632,
   41.0704,       661,
   41.0906,       633,
   41.1108,       655,
   41.1309,       656,
   41.1511,       635,
   41.1713,       662,
   41.1914,       642,
   41.2116,       636,
   41.2318,       645,
   41.2519,       632,
   41.2721,       682,
   41.2923,       645,
   41.3124,       689,
   41.3326,       703,
   41.3528,       685,
   41.3729,       687,
   41.3931,       635,
   41.4133,       682,
   41.4335,       673,
   41.4536,       740,
   41.4738,       679,
    41.494,       688,
   41.5141,       668,
   41.5343,       677,
   41.5545,       667,
   41.5746,       656,
   41.5948,       668,
    41.615,       707,
   41.6351,       697,
   41.6553,       688,
   41.6755,       755,
   41.6956,       659,
   41.7158,       683,
    41.736,       770,
   41.7562,       761,
   41.7763,       727,
   41.7965,       748,
   41.8167,       786,
   41.8368,       760,
    41.857,       749,
   41.8772,       793,
   41.8973,       795,
   41.9175,       816,
   41.9377,       829,
   41.9578,       790,
    41.978,       807,
   41.9982,       840,
   42.0183,       815,
   42.0385,       812,
   42.0587,       808,
   42.0788,       824,
    42.099,       791,
   42.1192,       861,
   42.1394,       847,
   42.1595,       873,
   42.1797,       809,
   42.1999,       869,
     42.22,       787,
   42.2402,       794,
   42.2604,       834,
   42.2805,       790,
   42.3007,       808,
   42.3209,       878,
    42.341,       859,
   42.3612,       912,
   42.3814,       871,
   42.4015,       879,
   42.4217,       897,
   42.4419,       892,
    42.462,       841,
   42.4822,       908,
   42.5024,       905,
   42.5226,       932,
   42.5427,       887,
   42.5629,       915,
   42.5831,       969,
   42.6032,       958,
   42.6234,       960,
   42.6436,      1030,
   42.6637,       976,
   42.6839,      1081,
   42.7041,      1029,
   42.7242,      1034,
   42.7444,      1105,
   42.7646,      1117,
   42.7847,      1164,
   42.8049,      1318,
   42.8251,      1353,
   42.8453,      1341,
   42.8654,      1390,
   42.8856,      1504,
   42.9058,      1545,
   42.9259,      1673,
   42.9461,      1755,
   42.9663,      1876,
   42.9864,      2010,
   43.0066,      2152,
   43.0268,      2255,
   43.0469,      2618,
   43.0671,      2873,
   43.0873,      3172,
   43.1074,      3699,
   43.1276,      4180,
   43.1478,      4699,
   43.1679,      5413,
   43.1881,      6321,
   43.2083,      7636,
   43.2285,      9559,
   43.2486,     12994,
   43.2688,     20391,
    43.289,     32792,
   43.3091,     36333,
   43.3293,     25317,
   43.3495,     16639,
   43.3696,     15137,
   43.3898,     17716,
     43.41,     21628,
   43.4301,     19384,
   43.4503,     12282,
   43.4705,      8357,
   43.4906,      6611,
   43.5108,      5620,
    43.531,      4762,
   43.5511,      4238,
   43.5713,      3597,
   43.5915,      3303,
   43.6117,      2940,
   43.6318,      2636,
    43.652,      2409,
   43.6722,      2191,
   43.6923,      2005,
   43.7125,      1858,
   43.7327,      1727,
   43.7528,      1618,
    43.773,      1478,
   43.7932,      1467,
   43.8133,      1448,
   43.8335,      1356,
   43.8537,      1266,
   43.8738,      1245,
    43.894,      1127,
   43.9142,      1209,
   43.9344,      1095,
   43.9545,      1112,
   43.9747,      1064,
   43.9949,      1088,
    44.015,      1088,
   44.0352,      1031,
   44.0554,      1074,
   44.0755,       988,
   44.0957,       937,
   44.1159,       987,
    44.136,       989,
   44.1562,       981,
   44.1764,       926,
   44.1965,       910,
   44.2167,       941,
   44.2369,       926,
    44.257,       911,
   44.2772,       863,
   44.2974,       901,
   44.3176,       844,
   44.3377,       920,
   44.3579,       896,
   44.3781,       841,
   44.3982,       838,
   44.4184,       877,
   44.4386,       838,
   44.4587,       826,
   44.4789,       853,
   44.4991,       888,
   44.5192,       776,
   44.5394,       827,
   44.5596,       858,
   44.5797,       829,
   44.5999,       825,
   44.6201,       761,
   44.6402,       814,
   44.6604,       827,
   44.6806,       829,
   44.7008,       765,
   44.7209,       799,
   44.7411,       802,
   44.7613,       805,
   44.7814,       827,
   44.8016,       794,
   44.8218,       797,
   44.8419,       754,
   44.8621,       719,
   44.8823,       743,
   44.9024,       776,
   44.9226,       773,
   44.9428,       786,
   44.9629,       773,
   44.9831,       730,
   45.0033,       778,
   45.0235,       738,
   45.0436,       729,
   45.0638,       789,
    45.084,       783,
   45.1041,       760,
   45.1243,       769,
   45.1445,       697,
   45.1646,       713,
   45.1848,       753,
    45.205,       739,
   45.2251,       771,
   45.2453,       729,
   45.2655,       751,
   45.2856,       703,
   45.3058,       771,
    45.326,       754,
   45.3461,       786,
   45.3663,       741,
   45.3865,       794,
   45.4067,       740,
   45.4268,       661,
    45.447,       716,
   45.4672,       729,
   45.4873,       758,
   45.5075,       762,
   45.5277,       720,
   45.5478,       736,
    45.568,       712,
   45.5882,       802,
   45.6083,       737,
   45.6285,       735,
   45.6487,       719,
   45.6688,       721,
    45.689,       741,
   45.7092,       757,
   45.7294,       675,
   45.7495,       731,
   45.7697,       700,
   45.7899,       781,
     45.81,       762,
   45.8302,       706,
   45.8504,       729,
   45.8705,       751,
   45.8907,       721,
   45.9109,       733,
    45.931,       725,
   45.9512,       678,
   45.9714,       730,
   45.9915,       680,
   46.0117,       698,
   46.0319,       727,
    46.052,       705,
   46.0722,       732,
   46.0924,       731,
   46.1126,       764,
   46.1327,       739,
   46.1529,       677,
   46.1731,       744,
   46.1932,       710,
   46.2134,       696,
   46.2336,       660,
   46.2537,       725,
   46.2739,       717,
   46.2941,       688,
   46.3142,       718,
   46.3344,       722,
   46.3546,       702,
   46.3747,       717,
   46.3949,       749,
   46.4151,       782,
   46.4352,       716,
   46.4554,       675,
   46.4756,       694,
   46.4958,       708,
   46.5159,       720,
   46.5361,       687,
   46.5563,       681,
   46.5764,       706,
   46.5966,       705,
   46.6168,       701,
   46.6369,       697,
   46.6571,       668,
   46.6773,       706,
   46.6974,       694,
   46.7176,       675,
   46.7378,       741,
   46.7579,       681,
   46.7781,       716,
   46.7983,       680,
   46.8185,       681,
   46.8386,       665,
   46.8588,       716,
    46.879,       708,
   46.8991,       714,
   46.9193,       685,
   46.9395,       695,
   46.9596,       685,
   46.9798,       661,
        47,       754,
   47.0201,       685,
   47.0403,       685,
   47.0605,       696,
   47.0806,       732,
   47.1008,       682,
    47.121,       723,
   47.1411,       686,
   47.1613,       696,
   47.1815,       714,
   47.2017,       704,
   47.2218,       702,
    47.242,       694,
   47.2622,       697,
   47.2823,       685,
   47.3025,       695,
   47.3227,       728,
   47.3428,       713,
    47.363,       669,
   47.3832,       698,
   47.4033,       694,
   47.4235,       704,
   47.4437,       675,
   47.4638,       749,
    47.484,       697,
   47.5042,       710,
   47.5243,       678,
   47.5445,       666,
   47.5647,       692,
   47.5849,       661,
    47.605,       750,
   47.6252,       667,
   47.6454,       699,
   47.6655,       742,
   47.6857,       697,
   47.7059,       683,
    47.726,       715,
   47.7462,       737,
   47.7664,       653,
   47.7865,       719,
   47.8067,       695,
   47.8269,       696,
    47.847,       722,
   47.8672,       704,
   47.8874,       665,
   47.9076,       684,
   47.9277,       663,
   47.9479,       700,
   47.9681,       657,
   47.9882,       680,
   48.0084,       707,
   48.0286,       677,
   48.0487,       660,
   48.0689,       681,
   48.0891,       728,
   48.1092,       694,
   48.1294,       706,
   48.1496,       684,
   48.1697,       685,
   48.1899,       710,
   48.2101,       707,
   48.2302,       726,
   48.2504,       681,
   48.2706,       706,
   48.2908,       743,
   48.3109,       690,
   48.3311,       657,
   48.3513,       706,
   48.3714,       714,
   48.3916,       722,
   48.4118,       716,
   48.4319,       699,
   48.4521,       688,
   48.4723,       662,
   48.4924,       713,
   48.5126,       645,
   48.5328,       674,
   48.5529,       695,
   48.5731,       738,
   48.5933,       724,
   48.6134,       700,
   48.6336,       759,
   48.6538,       720,
    48.674,       749,
   48.6941,       719,
   48.7143,       709,
   48.7345,       715,
   48.7546,       731,
   48.7748,       729,
    48.795,       724,
   48.8151,       682,
   48.8353,       730,
   48.8555,       723,
   48.8756,       768,
   48.8958,       802,
    48.916,       744,
   48.9361,       765,
   48.9563,       782,
   48.9765,       712,
   48.9967,       729,
   49.0168,       760,
    49.037,       764,
   49.0572,       723,
   49.0773,       808,
   49.0975,       733,
   49.1177,       793,
   49.1378,       770,
    49.158,       782,
   49.1782,       705,
   49.1983,       810,
   49.2185,       777,
   49.2387,       712,
   49.2588,       790,
    49.279,       746,
   49.2992,       752,
   49.3193,       788,
   49.3395,       793,
   49.3597,       752,
   49.3799,       809,
      49.4,       762,
   49.4202,       783,
   49.4404,       806,
   49.4605,       771,
   49.4807,       779,
   49.5009,       799,
    49.521,       864,
   49.5412,       785,
   49.5614,       797,
   49.5815,       834,
   49.6017,       868,
   49.6219,       876,
    49.642,       851,
   49.6622,       834,
   49.6824,       840,
   49.7025,       877,
   49.7227,       905,
   49.7429,       881,
   49.7631,       856,
   49.7832,       912,
   49.8034,       968,
   49.8236,       983,
   49.8437,       963,
   49.8639,      1059,
   49.8841,      1044,
   49.9042,       968,
   49.9244,      1029,
   49.9446,      1117,
   49.9647,      1148,
   49.9849,      1196,
   50.0051,      1238,
   50.0252,      1259,
   50.0454,      1293,
   50.0656,      1417,
   50.0858,      1437,
   50.1059,      1497,
   50.1261,      1633,
   50.1463,      1733,
   50.1664,      1810,
   50.1866,      1964,
   50.2068,      2089,
   50.2269,      2056,
   50.2471,      2210,
   50.2673,      2319,
   50.2874,      2484,
   50.3076,      2723,
   50.3278,      2863,
   50.3479,      3210,
   50.3681,      3942,
   50.3883,      5154,
   50.4084,      7016,
   50.4286,      8175,
   50.4488,      7476,
    50.469,      5764,
   50.4891,      4665,
   50.5093,      4237,
   50.5295,      4563,
   50.5496,      5252,
   50.5698,      5260,
     50.59,      4584,
   50.6101,      3534,
   50.6303,      2958,
   50.6505,      2540,
   50.6706,      2180,
   50.6908,      2084,
    50.711,      1991,
   50.7311,      1803,
   50.7513,      1721,
   50.7715,      1672,
   50.7917,      1564,
   50.8118,      1485,
    50.832,      1358,
   50.8522,      1386,
   50.8723,      1269,
   50.8925,      1293,
   50.9127,      1254,
   50.9328,      1126,
    50.953,      1088,
   50.9732,      1079,
   50.9933,      1094,
   51.0135,      1024,
   51.0337,       967,
   51.0538,       942,
    51.074,       956,
   51.0942,       910,
   51.1143,       863,
   51.1345,       897,
   51.1547,       841,
   51.1749,       866,
    51.195,       875,
   51.2152,       873,
   51.2354,       822,
   51.2555,       858,
   51.2757,       791,
   51.2959,       810,
    51.316,       762,
   51.3362,       766,
   51.3564,       778,
   51.3765,       746,
   51.3967,       815,
   51.4169,       802,
    51.437,       838,
   51.4572,       740,
   51.4774,       718,
   51.4975,       754,
   51.5177,       705,
   51.5379,       748,
   51.5581,       755,
   51.5782,       723,
   51.5984,       723,
   51.6186,       720,
   51.6387,       686,
   51.6589,       705,
   51.6791,       681,
   51.6992,       692,
   51.7194,       679,
   51.7396,       698,
   51.7597,       724,
   51.7799,       694,
   51.8001,       670,
   51.8202,       732,
   51.8404,       667,
   51.8606,       693,
   51.8808,       736,
   51.9009,       681,
   51.9211,       725,
   51.9413,       690,
   51.9614,       741,
   51.9816,       652,
   52.0018,       697,
   52.0219,       708,
   52.0421,       676,
   52.0623,       710,
   52.0824,       686,
   52.1026,       679,
   52.1228,       665,
   52.1429,       700,
   52.1631,       673,
   52.1833,       742,
   52.2034,       658,
   52.2236,       650,
   52.2438,       675,
    52.264,       686,
   52.2841,       714,
   52.3043,       620,
   52.3245,       639,
   52.3446,       666,
   52.3648,       709,
    52.385,       671,
   52.4051,       693,
   52.4253,       659,
   52.4455,       651,
   52.4656,       668,
   52.4858,       619,
    52.506,       686,
   52.5261,       622,
   52.5463,       657,
   52.5665,       685,
   52.5866,       662,
   52.6068,       652,
    52.627,       640,
   52.6472,       639,
   52.6673,       618,
   52.6875,       635,
   52.7077,       585,
   52.7278,       683,
    52.748,       664,
   52.7682,       654,
   52.7883,       669,
   52.8085,       664,
   52.8287,       655,
   52.8488,       640,
    52.869,       677,
   52.8892,       674,
   52.9093,       624,
   52.9295,       686,
   52.9497,       652,
   52.9699,       640,
     52.99,       612,
   53.0102,       663,
   53.0304,       679,
   53.0505,       641,
   53.0707,       657,
   53.0909,       663,
    53.111,       647,
   53.1312,       652,
   53.1514,       637,
   53.1715,       630,
   53.1917,       643,
   53.2119,       634,
    53.232,       672,
   53.2522,       613,
   53.2724,       657,
   53.2925,       636,
   53.3127,       691,
   53.3329,       621,
   53.3531,       639,
   53.3732,       658,
   53.3934,       631,
   53.4136,       646,
   53.4337,       625,
   53.4539,       658,
   53.4741,       667,
   53.4942,       658,
   53.5144,       658,
   53.5346,       618,
   53.5547,       655,
   53.5749,       681,
   53.5951,       623,
   53.6152,       634,
   53.6354,       647,
   53.6556,       683,
   53.6757,       635,
   53.6959,       629,
   53.7161,       680,
   53.7363,       631,
   53.7564,       644,
   53.7766,       663,
   53.7968,       665,
   53.8169,       636,
   53.8371,       662,
   53.8573,       641,
   53.8774,       633,
   53.8976,       646,
   53.9178,       681,
   53.9379,       623,
   53.9581,       673,
   53.9783,       633,
   53.9984,       652,
   54.0186,       614,
   54.0388,       635,
    54.059,       631,
   54.0791,       674,
   54.0993,       642,
   54.1195,       652,
   54.1396,       659,
   54.1598,       626,
     54.18,       613,
   54.2001,       655,
   54.2203,       626,
   54.2405,       641,
   54.2606,       613,
   54.2808,       669,
    54.301,       710,
   54.3211,       668,
   54.3413,       718,
   54.3615,       628,
   54.3816,       601,
   54.4018,       662,
    54.422,       624,
   54.4422,       633,
   54.4623,       597,
   54.4825,       621,
   54.5027,       653,
   54.5228,       597,
    54.543,       680,
   54.5632,       648,
   54.5833,       666,
   54.6035,       627,
   54.6237,       661,
   54.6438,       649,
    54.664,       656,
   54.6842,       637,
   54.7043,       666,
   54.7245,       661,
   54.7447,       646,
   54.7648,       611,
    54.785,       619,
   54.8052,       651,
   54.8254,       623,
   54.8455,       642,
   54.8657,       617,
   54.8859,       678,
    54.906,       660,
   54.9262,       629,
   54.9464,       631,
   54.9665,       689,
   54.9867,       667,
   55.0069,       650,
    55.027,       613,
   55.0472,       658,
   55.0674,       575,
   55.0875,       626,
   55.1077,       698,
   55.1279,       638,
   55.1481,       606,
   55.1682,       660,
   55.1884,       632,
   55.2086,       572,
   55.2287,       654,
   55.2489,       629,
   55.2691,       652,
   55.2892,       610,
   55.3094,       634,
   55.3296,       594,
   55.3497,       651,
   55.3699,       671,
   55.3901,       607,
   55.4102,       646,
   55.4304,       668,
   55.4506,       587,
   55.4707,       674,
   55.4909,       645,
   55.5111,       651,
   55.5313,       634,
   55.5514,       646,
   55.5716,       648,
   55.5918,       601,
   55.6119,       621,
   55.6321,       602,
   55.6523,       646,
   55.6724,       615,
   55.6926,       583,
   55.7128,       627,
   55.7329,       622,
   55.7531,       674,
   55.7733,       652,
   55.7934,       598,
   55.8136,       650,
   55.8338,       593,
    55.854,       631,
   55.8741,       612,
   55.8943,       607,
   55.9145,       656,
   55.9346,       665,
   55.9548,       641,
    55.975,       606,
   55.9951,       609,
   56.0153,       630,
   56.0355,       578,
   56.0556,       582,
   56.0758,       618,
    56.096,       656,
   56.1161,       616,
   56.1363,       630,
   56.1565,       657,
   56.1766,       627,
   56.1968,       584,
    56.217,       629,
   56.2372,       608,
   56.2573,       653,
   56.2775,       662,
   56.2977,       616,
   56.3178,       647,
    56.338,       619,
   56.3582,       617,
   56.3783,       638,
   56.3985,       624,
   56.4187,       637,
   56.4388,       665,
    56.459,       680,
   56.4792,       627,
   56.4993,       643,
   56.5195,       650,
   56.5397,       616,
   56.5598,       627,
     56.58,       579,
   56.6002,       626,
   56.6204,       633,
   56.6405,       630,
   56.6607,       615,
   56.6809,       695,
    56.701,       636,
   56.7212,       593,
   56.7414,       605,
   56.7615,       633,
   56.7817,       650,
   56.8019,       658,
    56.822,       635,
   56.8422,       641,
   56.8624,       633,
   56.8825,       678,
   56.9027,       623,
   56.9229,       637,
   56.9431,       653,
   56.9632,       627,
   56.9834,       649,
   57.0036,       617,
   57.0237,       643,
   57.0439,       628,
   57.0641,       656,
   57.0842,       606,
   57.1044,       597,
   57.1246,       639,
   57.1447,       593,
   57.1649,       634,
   57.1851,       603,
   57.2052,       610,
   57.2254,       632,
   57.2456,       643,
   57.2657,       632,
   57.2859,       626,
   57.3061,       603,
   57.3263,       637,
   57.3464,       606,
   57.3666,       642,
   57.3868,       612,
   57.4069,       632,
   57.4271,       620,
   57.4473,       606,
   57.4674,       639,
   57.4876,       632,
   57.5078,       624,
   57.5279,       585,
   57.5481,       640,
   57.5683,       594,
   57.5884,       598,
   57.6086,       598,
   57.6288,       622,
   57.6489,       641,
   57.6691,       646,
   57.6893,       634,
   57.7095,       629,
   57.7296,       645,
   57.7498,       626,
     57.77,       656,
   57.7901,       673,
   57.8103,       669,
   57.8305,       628,
   57.8506,       640,
   57.8708,       592,
    57.891,       619,
   57.9111,       628,
   57.9313,       635,
   57.9515,       643,
   57.9716,       647,
   57.9918,       590,
    58.012,       584,
   58.0322,       633,
   58.0523,       593,
   58.0725,       563,
   58.0927,       684,
   58.1128,       618,
    58.133,       592,
   58.1532,       605,
   58.1733,       605,
   58.1935,       646,
   58.2137,       613,
   58.2338,       619,
    58.254,       622,
   58.2742,       665,
   58.2943,       592,
   58.3145,       606,
   58.3347,       641,
   58.3548,       673,
    58.375,       615,
   58.3952,       628,
   58.4154,       585,
   58.4355,       618,
   58.4557,       635,
   58.4759,       606,
    58.496,       605,
   58.5162,       600,
   58.5364,       629,
   58.5565,       615,
   58.5767,       605,
   58.5969,       584,
    58.617,       626,
   58.6372,       613,
   58.6574,       607,
   58.6775,       621,
   58.6977,       626,
   58.7179,       654,
    58.738,       609,
   58.7582,       643,
   58.7784,       611,
   58.7986,       625,
   58.8187,       611,
   58.8389,       652,
   58.8591,       611,
   58.8792,       591,
   58.8994,       607,
   58.9196,       599,
   58.9397,       634,
   58.9599,       589,
   58.9801,       586,
   59.0002,       582,
   59.0204,       580,
   59.0406,       610,
   59.0607,       591,
   59.0809,       616,
   59.1011,       590,
   59.1213,       655,
   59.1414,       619,
   59.1616,       606,
   59.1818,       649,
   59.2019,       626,
   59.2221,       624,
   59.2423,       656,
   59.2624,       581,
   59.2826,       586,
   59.3028,       621,
   59.3229,       635,
   59.3431,       648,
   59.3633,       628,
   59.3834,       648,
   59.4036,       604,
   59.4238,       635,
   59.4439,       600,
   59.4641,       628,
   59.4843,       628,
   59.5045,       635,
   59.5246,       645,
   59.5448,       650,
    59.565,       586,
   59.5851,       632,
   59.6053,       657,
   59.6255,       612,
   59.6456,       619,
   59.6658,       632,
    59.686,       616,
   59.7061,       600,
   59.7263,       604,
   59.7465,       621,
   59.7666,       614,
   59.7868,       612,
    59.807,       578,
   59.8271,       631,
   59.8473,       612,
   59.8675,       648,
   59.8877,       626,
   59.9078,       609,
    59.928,       617,
   59.9482,       606,
   59.9683,       607,
   59.9885,       615,
   60.0087,       626,
   60.0288,       619,
    60.049,       625,
   60.0692,       574,
   60.0893,       597,
   60.1095,       598,
   60.1297,       607,
   60.1498,       608,
     60.17,       584,
   60.1902,       596,
   60.2104,       622,
   60.2305,       586,
   60.2507,       623,
   60.2709,       610,
    60.291,       616,
   60.3112,       586,
   60.3314,       598,
   60.3515,       630,
   60.3717,       592,
   60.3919,       622,
    60.412,       642,
   60.4322,       603,
   60.4524,       600,
   60.4725,       608,
   60.4927,       649,
   60.5129,       614,
    60.533,       599,
   60.5532,       638,
   60.5734,       595,
   60.5936,       615,
   60.6137,       659,
   60.6339,       641,
   60.6541,       621,
   60.6742,       604,
   60.6944,       591,
   60.7146,       636,
   60.7347,       591,
   60.7549,       603,
   60.7751,       571,
   60.7952,       605,
   60.8154,       640,
   60.8356,       628,
   60.8557,       642,
   60.8759,       595,
   60.8961,       593,
   60.9163,       594,
   60.9364,       597,
   60.9566,       589,
   60.9768,       598,
   60.9969,       618,
   61.0171,       631,
   61.0373,       651,
   61.0574,       605,
   61.0776,       610,
   61.0978,       641,
   61.1179,       586,
   61.1381,       613,
   61.1583,       591,
   61.1784,       602,
   61.1986,       650,
   61.2188,       642,
   61.2389,       634,
   61.2591,       648,
   61.2793,       642,
   61.2995,       635,
   61.3196,       618,
   61.3398,       601,
     61.36,       655,
   61.3801,       612,
   61.4003,       611,
   61.4205,       561,
   61.4406,       560,
   61.4608,       614,
    61.481,       591,
   61.5011,       627,
   61.5213,       584,
   61.5415,       577,
   61.5616,       618,
   61.5818,       658,
    61.602,       625,
   61.6221,       613,
   61.6423,       609,
   61.6625,       625,
   61.6827,       607,
   61.7028,       635,
    61.723,       602,
   61.7432,       644,
   61.7633,       594,
   61.7835,       621,
   61.8037,       620,
   61.8238,       628,
    61.844,       634,
   61.8642,       594,
   61.8843,       607,
   61.9045,       572,
   61.9247,       630,
   61.9448,       590,
    61.965,       612,
   61.9852,       616,
   62.0054,       594,
   62.0255,       592,
   62.0457,       606,
   62.0659,       609,
    62.086,       620,
   62.1062,       622,
   62.1264,       573,
   62.1465,       595,
   62.1667,       605,
   62.1869,       583,
    62.207,       576,
   62.2272,       611,
   62.2474,       597,
   62.2675,       627,
   62.2877,       629,
   62.3079,       655,
    62.328,       612,
   62.3482,       636,
   62.3684,       608,
   62.3886,       600,
   62.4087,       634,
   62.4289,       611,
   62.4491,       631,
   62.4692,       637,
   62.4894,       634,
   62.5096,       569,
   62.5297,       609,
   62.5499,       609,
   62.5701,       607,
   62.5902,       597,
   62.6104,       644,
   62.6306,       596,
   62.6507,       613,
   62.6709,       573,
   62.6911,       629,
   62.7112,       581,
   62.7314,       640,
   62.7516,       594,
   62.7718,       591,
   62.7919,       600,
   62.8121,       579,
   62.8323,       590,
   62.8524,       531,
   62.8726,       584,
   62.8928,       654,
   62.9129,       605,
   62.9331,       616,
   62.9533,       597,
   62.9734,       598,
   62.9936,       620,
   63.0138,       570,
   63.0339,       627,
   63.0541,       628,
   63.0743,       579,
   63.0945,       614,
   63.1146,       628,
   63.1348,       564,
    63.155,       635,
   63.1751,       618,
   63.1953,       594,
   63.2155,       586,
   63.2356,       610,
   63.2558,       614,
    63.276,       578,
   63.2961,       579,
   63.3163,       603,
   63.3365,       607,
   63.3566,       613,
   63.3768,       573,
    63.397,       592,
   63.4171,       615,
   63.4373,       598,
   63.4575,       607,
   63.4777,       597,
   63.4978,       595,
    63.518,       591,
   63.5382,       580,
   63.5583,       608,
   63.5785,       593,
   63.5987,       609,
   63.6188,       591,
    63.639,       607,
   63.6592,       597,
   63.6793,       607,
   63.6995,       651,
   63.7197,       619,
   63.7398,       601,
     63.76,       652,
   63.7802,       568,
   63.8003,       618,
   63.8205,       587,
   63.8407,       631,
   63.8609,       604,
    63.881,       603,
   63.9012,       615,
   63.9214,       599,
   63.9415,       655,
   63.9617,       626,
   63.9819,       569,
    64.002,       601,
   64.0222,       630,
   64.0424,       622,
   64.0625,       610,
   64.0827,       606,
   64.1029,       597,
    64.123,       622,
   64.1432,       580,
   64.1634,       532,
   64.1836,       620,
   64.2037,       602,
   64.2239,       609,
   64.2441,       606,
   64.2642,       591,
   64.2844,       628,
   64.3046,       616,
   64.3247,       586,
   64.3449,       564,
   64.3651,       664,
   64.3852,       585,
   64.4054,       570,
   64.4256,       621,
   64.4457,       596,
   64.4659,       599,
   64.4861,       576,
   64.5062,       629,
   64.5264,       578,
   64.5466,       590,
   64.5668,       621,
   64.5869,       611,
   64.6071,       642,
   64.6273,       572,
   64.6474,       622,
   64.6676,       583,
   64.6878,       634,
   64.7079,       617,
   64.7281,       630,
   64.7483,       562,
   64.7684,       601,
   64.7886,       596,
   64.8088,       597,
   64.8289,       606,
   64.8491,       611,
   64.8693,       621,
   64.8894,       576,
   64.9096,       652,
   64.9298,       625,
     64.95,       584,
   64.9701,       584,
   64.9903,       664,
   65.0105,       630,
   65.0306,       595,
   65.0508,       659,
    65.071,       625,
   65.0911,       576,
   65.1113,       608,
   65.1315,       601,
   65.1516,       563,
   65.1718,       565,
    65.192,       598,
   65.2121,       599,
   65.2323,       607,
   65.2525,       594,
   65.2727,       588,
   65.2928,       565,
    65.313,       632,
   65.3332,       587,
   65.3533,       614,
   65.3735,       610,
   65.3937,       618,
   65.4138,       573,
    65.434,       610,
   65.4542,       603,
   65.4743,       609,
   65.4945,       609,
   65.5147,       616,
   65.5348,       610,
    65.555,       648,
   65.5752,       611,
   65.5953,       629,
   65.6155,       596,
   65.6357,       623,
   65.6559,       578,
    65.676,       625,
   65.6962,       659,
   65.7164,       599,
   65.7365,       573,
   65.7567,       617,
   65.7769,       635,
    65.797,       611,
   65.8172,       580,
   65.8374,       611,
   65.8575,       613,
   65.8777,       582,
   65.8979,       580,
    65.918,       613,
   65.9382,       597,
   65.9584,       606,
   65.9786,       619,
   65.9987,       633,
   66.0189,       593,
   66.0391,       596,
   66.0592,       622,
   66.0794,       571,
   66.0996,       572,
   66.1197,       601,
   66.1399,       623,
   66.1601,       632,
   66.1802,       600,
   66.2004,       613,
   66.2206,       619,
   66.2407,       606,
   66.2609,       580,
   66.2811,       548,
   66.3012,       590,
   66.3214,       600,
   66.3416,       593,
   66.3618,       619,
   66.3819,       623,
   66.4021,       588,
   66.4223,       616,
   66.4424,       583,
   66.4626,       574,
   66.4828,       609,
   66.5029,       637,
   66.5231,       601,
   66.5433,       586,
   66.5634,       579,
   66.5836,       607,
   66.6038,       577,
   66.6239,       595,
   66.6441,       637,
   66.6643,       590,
   66.6844,       613,
   66.7046,       605,
   66.7248,       654,
    66.745,       617,
   66.7651,       587,
   66.7853,       639,
   66.8055,       634,
   66.8256,       580,
   66.8458,       610,
    66.866,       567,
   66.8861,       607,
   66.9063,       607,
   66.9265,       539,
   66.9466,       593,
   66.9668,       619,
    66.987,       633,
   67.0071,       584,
   67.0273,       636,
   67.0475,       552,
   67.0677,       608,
   67.0878,       595,
    67.108,       627,
   67.1282,       600,
   67.1483,       623,
   67.1685,       591,
   67.1887,       579,
   67.2088,       594,
    67.229,       586,
   67.2492,       606,
   67.2693,       600,
   67.2895,       581,
   67.3097,       606,
   67.3298,       612,
     67.35,       567,
   67.3702,       576,
   67.3903,       570,
   67.4105,       613,
   67.4307,       557,
   67.4509,       591,
    67.471,       655,
   67.4912,       594,
   67.5114,       622,
   67.5315,       614,
   67.5517,       623,
   67.5719,       634,
    67.592,       554,
   67.6122,       618,
   67.6324,       605,
   67.6525,       629,
   67.6727,       560,
   67.6929,       629,
    67.713,       572,
   67.7332,       581,
   67.7534,       613,
   67.7735,       607,
   67.7937,       622,
   67.8139,       583,
   67.8341,       606,
   67.8542,       578,
   67.8744,       605,
   67.8946,       563,
   67.9147,       631,
   67.9349,       604,
   67.9551,       601,
   67.9752,       625,
   67.9954,       591,
   68.0156,       588,
   68.0357,       614,
   68.0559,       588,
   68.0761,       619,
   68.0962,       594,
   68.1164,       606,
   68.1366,       570,
   68.1568,       599,
   68.1769,       602,
   68.1971,       590,
   68.2173,       608,
   68.2374,       613,
   68.2576,       644,
   68.2778,       591,
   68.2979,       566,
   68.3181,       594,
   68.3383,       603,
   68.3584,       591,
   68.3786,       622,
   68.3988,       636,
   68.4189,       623,
   68.4391,       586,
   68.4593,       570,
   68.4794,       602,
   68.4996,       598,
   68.5198,       654,
     68.54,       618,
   68.5601,       557,
   68.5803,       571,
   68.6005,       612,
   68.6206,       620,
   68.6408,       593,
    68.661,       558,
   68.6811,       573,
   68.7013,       589,
   68.7215,       580,
   68.7416,       635,
   68.7618,       635,
    68.782,       634,
   68.8021,       591,
   68.8223,       628,
   68.8425,       576,
   68.8626,       594,
   68.8828,       582,
    68.903,       633,
   68.9232,       602,
   68.9433,       586,
   68.9635,       612,
   68.9837,       643,
   69.0038,       616,
    69.024,       621,
   69.0442,       623,
   69.0643,       572,
   69.0845,       628,
   69.1047,       593,
   69.1248,       611,
    69.145,       596,
   69.1652,       607,
   69.1853,       589,
   69.2055,       595,
   69.2257,       587,
   69.2459,       626,
    69.266,       580,
   69.2862,       623,
   69.3064,       588,
   69.3265,       542,
   69.3467,       611,
   69.3669,       595,
    69.387,       651,
   69.4072,       613,
   69.4274,       558,
   69.4475,       617,
   69.4677,       617,
   69.4879,       615,
    69.508,       556,
   69.5282,       564,
   69.5484,       602,
   69.5685,       572,
   69.5887,       584,
   69.6089,       634,
   69.6291,       594,
   69.6492,       573,
   69.6694,       600,
   69.6896,       600,
   69.7097,       584,
   69.7299,       597,
   69.7501,       601,
   69.7702,       614,
   69.7904,       592,
   69.8106,       621,
   69.8307,       627,
   69.8509,       566,
   69.8711,       608,
   69.8912,       563,
   69.9114,       590,
   69.9316,       620,
   69.9517,       617,
   69.9719,       600,
   69.9921,       568,
   70.0123,       599,
   70.0324,       614,
   70.0526,       570,
   70.0728,       563,
   70.0929,       618,
   70.1131,       625,
   70.1333,       569,
   70.1534,       569,
   70.1736,       608,
   70.1938,       607,
   70.2139,       608,
   70.2341,       593,
   70.2543,       610,
   70.2744,       620,
   70.2946,       589,
   70.3148,       639,
    70.335,       590,
   70.3551,       615,
   70.3753,       606,
   70.3955,       636,
   70.4156,       639,
   70.4358,       559,
    70.456,       578,
   70.4761,       616,
   70.4963,       635,
   70.5165,       621,
   70.5366,       628,
   70.5568,       622,
    70.577,       603,
   70.5971,       588,
   70.6173,       586,
   70.6375,       590,
   70.6576,       595,
   70.6778,       619,
    70.698,       588,
   70.7182,       665,
   70.7383,       589,
   70.7585,       636,
   70.7787,       599,
   70.7988,       577,
    70.819,       566,
   70.8392,       588,
   70.8593,       608,
   70.8795,       602,
   70.8997,       620,
   70.9198,       617,
     70.94,       604,
   70.9602,       647,
   70.9803,       613,
   71.0005,       601,
   71.0207,       585,
   71.0409,       624,
    71.061,       631,
   71.0812,       571,
   71.1014,       630,
   71.1215,       595,
   71.1417,       610,
   71.1619,       576,
    71.182,       612,
   71.2022,       602,
   71.2224,       581,
   71.2425,       595,
   71.2627,       618,
   71.2829,       656,
    71.303,       587,
   71.3232,       638,
   71.3434,       639,
   71.3635,       618,
   71.3837,       632,
   71.4039,       630,
   71.4241,       653,
   71.4442,       607,
   71.4644,       597,
   71.4846,       598,
   71.5047,       576,
   71.5249,       616,
   71.5451,       614,
   71.5652,       621,
   71.5854,       618,
   71.6056,       600,
   71.6257,       617,
   71.6459,       605,
   71.6661,       631,
   71.6862,       622,
   71.7064,       628,
   71.7266,       616,
   71.7467,       624,
   71.7669,       641,
   71.7871,       652,
   71.8073,       614,
   71.8274,       610,
   71.8476,       626,
   71.8678,       643,
   71.8879,       614,
   71.9081,       581,
   71.9283,       599,
   71.9484,       675,
   71.9686,       611,
   71.9888,       583,
   72.0089,       588,
   72.0291,       610,
   72.0493,       632,
   72.0694,       632,
   72.0896,       607,
   72.1098,       604,
     72.13,       613,
   72.1501,       611,
   72.1703,       606,
   72.1905,       599,
   72.2106,       645,
   72.2308,       621,
    72.251,       630,
   72.2711,       630,
   72.2913,       623,
   72.3115,       607,
   72.3316,       658,
   72.3518,       610,
    72.372,       586,
   72.3921,       599,
   72.4123,       632,
   72.4325,       606,
   72.4526,       622,
   72.4728,       622,
    72.493,       650,
   72.5132,       575,
   72.5333,       628,
   72.5535,       618,
   72.5737,       615,
   72.5938,       613,
    72.614,       648,
   72.6342,       657,
   72.6543,       578,
   72.6745,       639,
   72.6947,       584,
   72.7148,       624,
    72.735,       614,
   72.7552,       623,
   72.7753,       618,
   72.7955,       622,
   72.8157,       624,
   72.8358,       600,
    72.856,       675,
   72.8762,       613,
   72.8964,       616,
   72.9165,       636,
   72.9367,       647,
   72.9569,       616,
    72.977,       587,
   72.9972,       650,
   73.0174,       616,
   73.0375,       655,
   73.0577,       609,
   73.0779,       612,
    73.098,       673,
   73.1182,       599,
   73.1384,       660,
   73.1585,       651,
   73.1787,       594,
   73.1989,       619,
   73.2191,       695,
   73.2392,       683,
   73.2594,       656,
   73.2796,       646,
   73.2997,       665,
   73.3199,       595,
   73.3401,       706,
   73.3602,       681,
   73.3804,       659,
   73.4006,       667,
   73.4207,       621,
   73.4409,       688,
   73.4611,       679,
   73.4812,       685,
   73.5014,       679,
   73.5216,       690,
   73.5417,       694,
   73.5619,       705,
   73.5821,       702,
   73.6023,       709,
   73.6224,       722,
   73.6426,       789,
   73.6628,       792,
   73.6829,       791,
   73.7031,       807,
   73.7233,       867,
   73.7434,       915,
   73.7636,       938,
   73.7838,       921,
   73.8039,       920,
   73.8241,       953,
   73.8443,       953,
   73.8644,      1036,
   73.8846,       994,
   73.9048,      1059,
   73.9249,      1126,
   73.9451,      1130,
   73.9653,      1300,
   73.9855,      1327,
   74.0056,      1591,
   74.0258,      1893,
    74.046,      2548,
   74.0661,      3800,
   74.0863,      5722,
   74.1065,      7186,
   74.1266,      6679,
   74.1468,      4686,
    74.167,      3065,
   74.1871,      2397,
   74.2073,      1874,
   74.2275,      1756,
   74.2476,      1826,
   74.2678,      2185,
    74.288,      2783,
   74.3082,      3687,
   74.3283,      4052,
   74.3485,      3482,
   74.3687,      2626,
   74.3888,      1841,
    74.409,      1440,
   74.4292,      1275,
   74.4493,      1179,
   74.4695,      1028,
   74.4897,       972,
   74.5098,       961,
     74.53,       852,
   74.5502,       889,
   74.5703,       834,
   74.5905,       828,
   74.6107,       819,
   74.6308,       789,
    74.651,       772,
   74.6712,       780,
   74.6914,       714,
   74.7115,       722,
   74.7317,       739,
   74.7519,       754,
    74.772,       691,
   74.7922,       689,
   74.8124,       668,
   74.8325,       703,
   74.8527,       697,
   74.8729,       696,
    74.893,       644,
   74.9132,       679,
   74.9334,       688,
   74.9535,       665,
   74.9737,       671,
   74.9939,       620,
    75.014,       641,
   75.0342,       660,
   75.0544,       669,
   75.0746,       641,
   75.0947,       654,
   75.1149,       642,
   75.1351,       651,
   75.1552,       623,
   75.1754,       654,
   75.1956,       657,
   75.2157,       591,
   75.2359,       631,
   75.2561,       634,
   75.2762,       662,
   75.2964,       596,
   75.3166,       625,
   75.3367,       608,
   75.3569,       611,
   75.3771,       601,
   75.3973,       612,
   75.4174,       634,
   75.4376,       650,
   75.4578,       611,
   75.4779,       624,
   75.4981,       606,
   75.5183,       626,
   75.5384,       605,
   75.5586,       676,
   75.5788,       633,
   75.5989,       616,
   75.6191,       646,
   75.6393,       597,
   75.6594,       686,
   75.6796,       628,
   75.6998,       622,
   75.7199,       644,
   75.7401,       650,
   75.7603,       578,
   75.7805,       608,
   75.8006,       611,
   75.8208,       667,
    75.841,       613,
   75.8611,       562,
   75.8813,       630,
   75.9015,       578,
   75.9216,       595,
   75.9418,       640,
    75.962,       622,
   75.9821,       619,
   76.0023,       635,
   76.0225,       643,
   76.0426,       609,
   76.0628,       596,
    76.083,       601,
   76.1032,       613,
   76.1233,       617,
   76.1435,       644,
   76.1637,       590,
   76.1838,       629,
    76.204,       604,
   76.2242,       605,
   76.2443,       652,
   76.2645,       632,
   76.2847,       589,
   76.3048,       568,
    76.325,       649,
   76.3452,       604,
   76.3653,       619,
   76.3855,       601,
   76.4057,       591,
   76.4258,       599,
    76.446,       617,
   76.4662,       616,
   76.4864,       636,
   76.5065,       631,
   76.5267,       665,
   76.5469,       584,
    76.567,       600,
   76.5872,       636,
   76.6074,       624,
   76.6275,       603,
   76.6477,       634,
   76.6679,       631,
    76.688,       610,
   76.7082,       630,
   76.7284,       583,
   76.7485,       568,
   76.7687,       583,
   76.7889,       629,
    76.809,       557,
   76.8292,       594,
   76.8494,       602,
   76.8696,       607,
   76.8897,       580,
   76.9099,       575,
   76.9301,       604,
   76.9502,       623,
   76.9704,       579,
   76.9906,       668,
   77.0107,       617,
   77.0309,       610,
   77.0511,       623,
   77.0712,       594,
   77.0914,       598,
   77.1116,       613,
   77.1317,       625,
   77.1519,       589,
   77.1721,       590,
   77.1923,       601,
   77.2124,       610,
   77.2326,       596,
   77.2528,       573,
   77.2729,       616,
   77.2931,       623,
   77.3133,       574,
   77.3334,       633,
   77.3536,       604,
   77.3738,       616,
   77.3939,       585,
   77.4141,       636,
   77.4343,       558,
   77.4544,       578,
   77.4746,       618,
   77.4948,       596,
   77.5149,       580,
   77.5351,       613,
   77.5553,       600,
   77.5755,       624,
   77.5956,       609,
   77.6158,       610,
    77.636,       605,
   77.6561,       620,
   77.6763,       605,
   77.6965,       600,
   77.7166,       642,
   77.7368,       618,
    77.757,       615,
   77.7771,       587,
   77.7973,       634,
   77.8175,       601,
   77.8376,       575,
   77.8578,       620,
    77.878,       574,
   77.8981,       597,
   77.9183,       586,
   77.9385,       640,
   77.9587,       579,
   77.9788,       600,
    77.999,       580,
