;RAW4.00
[RawHeader]
Date=11/25/2025
EstimatedTotalTime=426.6
FurtherDQLReading=0
HardwareIndicator=65519
MeasuredTotalTime=4.29518
MeasurementFlag=1
NumberOfMeasuredRanges=1
NumberOfRanges=1
Time=21:30:18

[VarInfo]
Type=USER
Flags=0
Value=Lab Manager

[VarInfo]
Type=SAMPLEID
Flags=0
Value=Commander Sample ID

[VarInfo]
Type=COMMENT
Flags=0
Value=

[VarInfo]
Type=UTF
Flags=0
Value=

[VarInfo]
Type=CREATOR
Flags=0
Value=V5Converter

[VarInfo]
Type=CREATOR_VERSION
Flags=0
Value=4.4.16.0

[HardwareConfiguration]
AbsorptionFactor=9999
ActivateAbsorber=0
Alpha1=1.5406
Alpha2=1.54439
AlphaAverage=1.54184
AlphaRatio=0.5
Analyzer=0
Anode=Cu
AntiScatteringSlit=9999
BeamOpticsFlags=0
Beta=1.39222
BetaRelativeIntensity=0
DeactivateAbsorber=0
DetectorSlit=9999
DivergenceSlit=9999
GoniometerControl=0
GoniometerDiameter=282
GoniometerModel=256
GoniometerStage=7
Monochromator=0
NearSampleSlit=9999
PrimarySollerSlit=9999
SampleChanger=0
SecondSollerSlit=9999
SynchronousAxis=0
ThinFilmAttachment=9999
WaveUnit=A

[RangeHeader]
ActuallyUsedLambda=1.54184
AdditionalDetectorMask=257
DataRecordLength=4
DelayTime=0
DisplayPlaneNumber=0
EstimatedScanTime=427
ExtraParametersMask=0
GeneratorCurrent=10
GeneratorVoltage=30
Increment=0.0201685
Increment3=0
NumberOfCompletedData=1885
NumberOfCounts=1
NumberOfDetectors=0
NumberOfDrives=3
NumberOfEncoderDrives=0
NumberOfMeasuredData=1885
NumberOfVaryingParameters=0
RangeStartTime=0
RotationSpeed=0
ScanMode=1
ScanType=Locked Coupled
SimulatedMeasConditions=0
SlitChangerIn=0
SmootingWidth=0
Start=40.0015
Steps=1885
SynchronousRotation=0
Time=33

[VarInfo]
Type=PSD_DISCRIM
Flags=0
Value=0.11;0.5

[VarInfo]
Type=OPTICS_V5
Flags=0
Value=H4sIAAAAAAAEAO1d63KjOhJ+Fda/zqmtBIPtXKaITzm2J+OaOHbFTnKmtrZcBORYZzC4AOey//d99hl2X2x1QViIS8C3JBN+TCaodWm6+2vUUkfS/nieW9IjcD3o2GcV5bBakYBtOCa0H84qS396oBxV/mhqF44NnTnwgdt25gvHBrbf0X1dQq1t78uzB88qM99ffJHlp6enw6faoeM+yGq1qsh/9i9HxgzM9QNoe75uG6AStjJfb1WRbqEH7y1wpc/BWWXFR0joAM9w4cInL/Bj4UHLsSW+3oXrLBc9NBZ6t3Pgojcb3P8FDH+o+7OzitwBj9AAMt+CrxUfl1Lblu55QRehTORzoM8XqLDt2L4ObeBy/coBc6yHluEvdYtxoR6o1ePT02O5h8TkLue4tzhrTW2EZGjqqBswQr3oFvyXjl+9OdUtD2hyGln7c259hcAyrwHqHhq4EDFpA/KbJ8lNjfKD1ToCFipvdm00JDA1OUbR6Btwou9Ab2HpL824AjQ5tXK8m+bF4OrHhPzodEft64TGrBVWDOsoPhpP1bBWhrxWvISy1r0hIUP+4r8skMLHrm78xG8sGODQhXPdfSHkZBMMakgD9GxISBvSeHkPOIFIQeOidilHx44baRI9r5mSRmyEDSxUYBJZ3blu/xy4JnCvAfYzAL0wsdX3b8s5NVnMwIfj6+8T9KPV/l7IxHm5Jhp5z0OvBh9BE+kGCS98DAk920dCZMIVSikeHA9SJulgmhwp1bAq2ZMXfZT4B2LSAxc+QFu3ogSlwl6OWi7Ssb/0moPwnSLFGmsYPPedJdIj0qJQrgWE0MJ5JCOdEXICmjFtjmnJUA7J0tRxpRHQLUBtYA3AytxYcejGiMm4JZa46kmmLG0LrhEWBa3xcus++8A2MZDfDYZpCWdMkQKtj5nwHfcltGVFk+OFGseMJxH2qHoYWND7cnJosmJN5ku1uCnh1+H65qyTKx3Y545jAR1NEG5s6BPpdiDSG56bXcI59IlYwiKvWdVk7knrgKm+tPxb3VoCboigVyQ96CPXTshnFewlKri/oQta5l9LD8GnYEuZYx67mbHTJoqe6ZblPK0cjVCOarZnwPgJzFUVVqC1ESPOHKsWvx33pNH5Zl7erhEyxkg2xVq1lr7TdoHug6HrLIDrvzAWEyiR9/eIRfdMhLKr5fweuE21rslCEdaQRS08UPF//xMyUSUc9B0TNG8Quqbos4xMnTwz90Y+PzEHluy7tuWt5HgP/ND5vNXOHBXjLvaN2aNbYuh5A79Evm3IJvErCL6JJ23LP418rD3OPSHRTOHDEjnla/gw85sIdabECnU0BoKwUKWYS+vrz5fAfvBnTbXRwKJhj2nOjrJISkNktZevObqMVm/q5DL4SnFwGS02cm5pFninPwKqkpa1mOmKYIUieVuWOJh2nCVqyWzxf//ehzWm2Nxw9uJBQ7dIeQJnTA/KYaNePXrNFtfo7ca2MPfItOjcf/WMZelYS+paugfVBtErK9H60Ibz5bx5oBwenx4fndaUWv3kSK0pjePu32vVE4S4oAZGIvklvWZQ4W0Rs4b0UpC0Rk/7QJiajTD10yOsXjvdJsRYdyXGNhLfFkDGuto1yh6Bqz+IoV6M/ulxppzUt4kz1l2Js43EtwWcsa52jLNz4OupIMPET46w2qmqqttD2Kq7EmEbiW9jhK262jHCrvGaRirECHVXGHuvCFutth02NsJWrKMSVWsKbh08xTrZCZK+OsbSG7gQ2D5ZHRSgJJK3tspG1g4H057tH9XfH6CibEVXr/OjKbkXhfRCBYDfqOeDOWLs0nmABl3VvJn0rm5bl73OpP2tN9TkFYkJfAye/WbPftQtiMQzg4uVjCJaIvW07+CFjI1lEf6uyTEWsnm67F2lsnIJbSARW0kbWtlk6OEgY+yhA20/e3B1k8GZLoaD0auqCHeKD6S58wgk35HmwJjpNrYKCTmTxd/SeKxl8/ienF2WXefzdFk9bOTm6N5Lz546UqiqhAVciZbr3FOQY3BWIVUkVBrdJr+ZtC6H31rRcrGRhEeyyEjkXXKxo0bYURPZUVPYUbPYUQuzEywL8PxEyoQBQloib5PW7UUWe0HrokySmCrg8D78PeybkkWGzrvjVjIvuH4+FiIbUQEDqBXeyxN46LJSkY3uZbffvRqnSMV2TCAFbaXVSDlkQmfBvNq4EkHsASVZZdetcW+QpTTSOp+8YlOLgL9pYnk4ToQicvl10J4MrpMZJONJkeZyfMe6Ed+xvgA2skTfcYU8TFacvPmcsQFLZ8dr7r82tXQiP3O7dSw/voYXlO4q5vl5u6WEjcypLxqFfRNqVSHyCL4FKaFHctihVBMCjFp1f7FErbF+MBEXRsEvZLo55TW19tJ1sT+LmlpQuitTm7f2YWpolHD6sQ1TaySFsh/E0uKy2LulDZ0nkgHOmxQp25WV3aUEnW+xcHMnRJr5lluqhymm+EkWW+4491hde7Ul3ssWbV9+7YtfJA0UTQyNGXBfyVbbPA8ud74bklUw60j9YgWfilQ/I4dzraYmBmuZ2QhiKJW9qxqLdLI3h6IxR/YytzAXT1vD42MIIXVJnC4nR8cylyaJ7OZRhxZeJcCPHu2eWH2ZQFkmUJYJlGUCZZlA+fE2xcsEyvezJV4mUP6aCCsTKN8TxsoEyl8VZ2UC5XvCWZlA+ashrEygfE8IKxMoywTKMoGyTKAsEyjLBMoygbJMoCwTKMsEyjKBskygLBMoywTKMoGyTKAsEyjLBMoygbJMoHzr+KNMoCwTKD9tAiXLkUS/iumT7KzT+Cmg4tm7GScqd+cL/4UkG4arGcVOT+72h4PRhP4scnoyGTg0xcTzk2U+BzLzcGMl7XBjde+HGw8WbefceR5MR45lATfhiGNKyDjkmKsg/WbotmTQQ8ElNJZEifQE7N/XgX9k+LhXSSBnuYaE6hunwkb7FPSZfOxxRGTIPPKL8PePe2KymphYK0bAR+scevtxXAin6Q2diJrmRGpv50S+wmdgEkNlcw/RmVjQz3IliCz1U2CAaRv4kdXICV5EJGb6ELHy5h6E61FQZYr/YA2o98gntQ/sOmq5XMfxeudlE7OmVzSsTJpYMhZe0hcRy1SR/jGf/zPDjH/DR/7fA2QfErQ9hAVgol98R9I5hWWaMq5mhBds4KeJUp0oaQYcIb5mwIVtN52ZmPP5qH/5US30lx930PRnYm4HLtvZktP8/WxBxzgL44DNsuvjPeVdZqh+7nWGuODWWWeI97KTtI5vABumgB1a+LnBszXslNBZz+i3gpzt3wSirjOzGenzhQXuZgBYY/QC/KUgIkkjH65UJ0ChmfamMj+F+lCxGJtFbxiJ1dIisfpGkRjhMR6HvT9h3thLD5hkeHHgLInKwm1g17oJl16CldWVYB+fXrg3mE494KdZfesZevz3Iay2B1ceYybnbh1ywVU1LSlVPTypn6qNRkNN8LvHjcOTRv24dqQqvK8VhNAM7mETbitc+w7DEUCRgJl9i2FYh7v9roNCXwNnMmzhLkORh4SYKLFGsfsMwz42ifVFRj70nYaF9FrM/4zwzYaj4jcbRuW787sNw+F2cbvhyRss3uHlOks3wMyxzMQtgMsX+xm8pBxzcfnj6s/ujy654bCjSsOZ7olX4OYEsRyOEwezQMpa3mDWKOO8X3k4Wj2jProvYAvX6KYzLmrzl7v28CTPUlxNiU9Yi8wL0ecUu0XdWrmWfniNJk2pxn6HJHazGl4xZ9PpjyfkXwFHw4ba6R6gstmscZebgP09bgIKCIswkLYN2N/zNmAmj6JSs3YC+59rJ1Cp53Ii1c+wFVhGSkUjpbRAqXF4dHrSUJRqPWmBqqEcHldP68dqfQeB0sontAHGieA9hcKI4+SmzLSadMAw70kjnLfkkW8dVkPLMIDnOS4E3hoRE+Mi7j2jlLwRUvyl1/ekrIcPHRqtqcpiLudicNWekB9FHA7lZ+eh0Ri4qHQnkdHp3mdFwxkkShPAfO0EGXBRYgTUqKlErdE1Wb0CGJXZGHSdNqGDKCsJ1TJnP6vqMuJUZpxuDuAUxgVFpsREEgUYMFu+rxszPNBZ5WDPRwluc5pzmitr4SQ+y+l5TBQhKMMCjfMcZLfIWj48ALPjYkzSv8ZE3eHvWs9sIu2S3oNHTCEVRwtgwGnwt6KsUpyC4BLvvcgEK46DYs5u+K03mpAfRZxdFKHbnGBVi0yvQisOP5lEYfRDEPwf22IqXU7pckqXI7qcECvsd+8VLsZPznhGTjB6jZVIzZz8ZA+dc9yig6ZEJvFifFQxXo8YAd9H0PIkfi6GHAXNPKxILbzB7vVR6AbplI5NtLGOuVT/5i2e1Rn4EFu+VFtBkewhB6uqmiyUa3yqI/WAkWUTj/6JxSqYYK6D6Pv/u9RXv2COAAA=

[PSD]
ActualTwoTheta=9999
FirstUsedChannel=0
FixedPSD=0
PSDOpening=4.99171
PSDType=5

[Drive]
DriveFlags=1
DriveName=2Theta
DriveNumber=2
DriveOffset=0
OffsetIndex=0
OscillationAmplitude=0
OscillationSpeed=0
StartPosition=40.0015

[Drive]
DriveFlags=1
DriveName=Theta
DriveNumber=1
DriveOffset=0
OffsetIndex=0
OscillationAmplitude=0
OscillationSpeed=0
StartPosition=20.0007

[Drive]
DriveFlags=1
DriveName=Phi
DriveNumber=3
DriveOffset=0
OffsetIndex=0
OscillationAmplitude=0
OscillationSpeed=0
StartPosition=0

[Data]
     Angle,       PSD,
   40.0015,       637,
   40.0217,       599,
   40.0418,       656,
    40.062,       616,
   40.0822,       622,
   40.1023,       649,
   40.1225,       641,
   40.1427,       624,
   40.1628,       607,
    40.183,       616,
   40.2032,       622,
   40.2233,       609,
   40.2435,       642,
   40.2637,       653,
   40.2838,       651,
    40.304,       620,
   40.3242,       625,
   40.3444,       651,
   40.3645,       658,
   40.3847,       656,
   40.4049,       625,
    40.425,       616,
   40.4452,       653,
   40.4654,       621,
   40.4855,       664,
   40.5057,       619,
   40.5259,       688,
    40.546,       650,
   40.5662,       669,
   40.5864,       614,
   40.6065,       635,
   40.6267,       685,
   40.6469,       614,
   40.6671,       625,
   40.6872,       673,
   40.7074,       702,
   40.7276,       671,
   40.7477,       631,
   40.7679,       644,
   40.7881,       665,
   40.8082,       691,
   40.8284,       667,
   40.8486,       648,
   40.8687,       651,
   40.8889,       684,
   40.9091,       601,
   40.9292,       684,
   40.9494,       699,
   40.9696,       704,
   40.9897,       680,
   41.0099,       668,
   41.0301,       651,
   41.0503,       715,
   41.0704,       685,
   41.0906,       666,
   41.1108,       645,
   41.1309,       668,
   41.1511,       705,
   41.1713,       709,
   41.1914,       710,
   41.2116,       652,
   41.2318,       691,
   41.2519,       664,
   41.2721,       635,
   41.2923,       692,
   41.3124,       709,
   41.3326,       697,
   41.3528,       700,
   41.3729,       644,
   41.3931,       695,
   41.4133,       643,
   41.4335,       663,
   41.4536,       642,
   41.4738,       708,
    41.494,       701,
   41.5141,       686,
   41.5343,       691,
   41.5545,       667,
   41.5746,       671,
   41.5948,       713,
    41.615,       716,
   41.6351,       735,
   41.6553,       737,
   41.6755,       739,
   41.6956,       791,
   41.7158,       728,
    41.736,       699,
   41.7562,       735,
   41.7763,       757,
   41.7965,       809,
   41.8167,       806,
   41.8368,       788,
    41.857,       826,
   41.8772,       729,
   41.8973,       799,
   41.9175,       800,
   41.9377,       808,
   41.9578,       825,
    41.978,       756,
   41.9982,       813,
   42.0183,       808,
   42.0385,       864,
   42.0587,       820,
   42.0788,       843,
    42.099,       816,
   42.1192,       850,
   42.1394,       838,
   42.1595,       796,
   42.1797,       846,
   42.1999,       863,
     42.22,       894,
   42.2402,       871,
   42.2604,       908,
   42.2805,       840,
   42.3007,       905,
   42.3209,       901,
    42.341,       946,
   42.3612,       923,
   42.3814,       917,
   42.4015,       940,
   42.4217,       935,
   42.4419,       991,
    42.462,       981,
   42.4822,       935,
   42.5024,      1031,
   42.5226,      1040,
   42.5427,       990,
   42.5629,      1042,
   42.5831,      1101,
   42.6032,      1061,
   42.6234,      1136,
   42.6436,      1197,
   42.6637,      1170,
   42.6839,      1184,
   42.7041,      1237,
   42.7242,      1301,
   42.7444,      1348,
   42.7646,      1382,
   42.7847,      1393,
   42.8049,      1520,
   42.8251,      1552,
   42.8453,      1679,
   42.8654,      1804,
   42.8856,      1915,
   42.9058,      1982,
   42.9259,      2093,
   42.9461,      2277,
   42.9663,      2439,
   42.9864,      2564,
   43.0066,      2841,
   43.0268,      3127,
   43.0469,      3460,
   43.0671,      3865,
   43.0873,      4293,
   43.1074,      4925,
   43.1276,      5745,
   43.1478,      6540,
   43.1679,      7754,
   43.1881,      8938,
   43.2083,     10443,
   43.2285,     12388,
   43.2486,     13921,
   43.2688,     15436,
    43.289,     16524,
   43.3091,     16909,
   43.3293,     16638,
   43.3495,     15779,
   43.3696,     15312,
   43.3898,     14391,
     43.41,     13277,
   43.4301,     12266,
   43.4503,     10911,
   43.4705,      9383,
   43.4906,      8327,
   43.5108,      7078,
    43.531,      6065,
   43.5511,      5478,
   43.5713,      4751,
   43.5915,      4173,
   43.6117,      3743,
   43.6318,      3369,
    43.652,      3009,
   43.6722,      2789,
   43.6923,      2523,
   43.7125,      2380,
   43.7327,      2204,
   43.7528,      2058,
    43.773,      1944,
   43.7932,      1846,
   43.8133,      1761,
   43.8335,      1623,
   43.8537,      1504,
   43.8738,      1453,
    43.894,      1431,
   43.9142,      1440,
   43.9344,      1384,
   43.9545,      1275,
   43.9747,      1265,
   43.9949,      1240,
    44.015,      1203,
   44.0352,      1195,
   44.0554,      1174,
   44.0755,      1127,
   44.0957,      1184,
   44.1159,      1134,
    44.136,      1053,
   44.1562,      1022,
   44.1764,      1024,
   44.1965,      1051,
   44.2167,       969,
   44.2369,       990,
    44.257,       974,
   44.2772,       931,
   44.2974,       989,
   44.3176,       935,
   44.3377,      1019,
   44.3579,       935,
   44.3781,       935,
   44.3982,       944,
   44.4184,       887,
   44.4386,       898,
   44.4587,       929,
   44.4789,       949,
   44.4991,       875,
   44.5192,       844,
   44.5394,       931,
   44.5596,       845,
   44.5797,       875,
   44.5999,       908,
   44.6201,       835,
   44.6402,       887,
   44.6604,       910,
   44.6806,       786,
   44.7008,       831,
   44.7209,       779,
   44.7411,       820,
   44.7613,       803,
   44.7814,       837,
   44.8016,       825,
   44.8218,       771,
   44.8419,       799,
   44.8621,       798,
   44.8823,       827,
   44.9024,       818,
   44.9226,       804,
   44.9428,       859,
   44.9629,       804,
   44.9831,       805,
   45.0033,       784,
   45.0235,       831,
   45.0436,       794,
   45.0638,       816,
    45.084,       814,
   45.1041,       797,
   45.1243,       781,
   45.1445,       787,
   45.1646,       786,
   45.1848,       792,
    45.205,       823,
   45.2251,       819,
   45.2453,       812,
   45.2655,       810,
   45.2856,       789,
   45.3058,       787,
    45.326,       843,
   45.3461,       767,
   45.3663,       834,
   45.3865,       766,
   45.4067,       761,
   45.4268,       817,
    45.447,       781,
   45.4672,       716,
   45.4873,       818,
   45.5075,       703,
   45.5277,       765,
   45.5478,       733,
    45.568,       768,
   45.5882,       687,
   45.6083,       739,
   45.6285,       760,
   45.6487,       764,
   45.6688,       719,
    45.689,       791,
   45.7092,       750,
   45.7294,       717,
   45.7495,       749,
   45.7697,       786,
   45.7899,       738,
     45.81,       787,
   45.8302,       742,
   45.8504,       723,
   45.8705,       753,
   45.8907,       724,
   45.9109,       719,
    45.931,       755,
   45.9512,       739,
   45.9714,       715,
   45.9915,       730,
   46.0117,       694,
   46.0319,       686,
    46.052,       768,
   46.0722,       744,
   46.0924,       739,
   46.1126,       734,
   46.1327,       736,
   46.1529,       736,
   46.1731,       725,
   46.1932,       686,
   46.2134,       700,
   46.2336,       724,
   46.2537,       749,
   46.2739,       709,
   46.2941,       689,
   46.3142,       736,
   46.3344,       740,
   46.3546,       744,
   46.3747,       756,
   46.3949,       784,
   46.4151,       704,
   46.4352,       745,
   46.4554,       725,
   46.4756,       733,
   46.4958,       770,
   46.5159,       761,
   46.5361,       753,
   46.5563,       723,
   46.5764,       709,
   46.5966,       718,
   46.6168,       711,
   46.6369,       736,
   46.6571,       749,
   46.6773,       707,
   46.6974,       765,
   46.7176,       727,
   46.7378,       770,
   46.7579,       736,
   46.7781,       730,
   46.7983,       755,
   46.8185,       720,
   46.8386,       780,
   46.8588,       713,
    46.879,       732,
   46.8991,       770,
   46.9193,       733,
   46.9395,       726,
   46.9596,       715,
   46.9798,       706,
        47,       714,
   47.0201,       715,
   47.0403,       739,
   47.0605,       732,
   47.0806,       691,
   47.1008,       680,
    47.121,       674,
   47.1411,       708,
   47.1613,       746,
   47.1815,       701,
   47.2017,       727,
   47.2218,       659,
    47.242,       688,
   47.2622,       729,
   47.2823,       745,
   47.3025,       715,
   47.3227,       708,
   47.3428,       727,
    47.363,       719,
   47.3832,       679,
   47.4033,       717,
   47.4235,       727,
   47.4437,       715,
   47.4638,       706,
    47.484,       721,
   47.5042,       674,
   47.5243,       724,
   47.5445,       703,
   47.5647,       686,
   47.5849,       696,
    47.605,       735,
   47.6252,       736,
   47.6454,       732,
   47.6655,       674,
   47.6857,       715,
   47.7059,       663,
    47.726,       693,
   47.7462,       730,
   47.7664,       717,
   47.7865,       760,
   47.8067,       695,
   47.8269,       735,
    47.847,       741,
   47.8672,       712,
   47.8874,       750,
   47.9076,       710,
   47.9277,       723,
   47.9479,       684,
   47.9681,       749,
   47.9882,       720,
   48.0084,       724,
   48.0286,       768,
   48.0487,       749,
   48.0689,       679,
   48.0891,       749,
   48.1092,       680,
   48.1294,       716,
   48.1496,       679,
   48.1697,       711,
   48.1899,       711,
   48.2101,       737,
   48.2302,       710,
   48.2504,       728,
   48.2706,       738,
   48.2908,       693,
   48.3109,       691,
   48.3311,       736,
   48.3513,       756,
   48.3714,       740,
   48.3916,       707,
   48.4118,       713,
   48.4319,       743,
   48.4521,       729,
   48.4723,       758,
   48.4924,       765,
   48.5126,       739,
   48.5328,       736,
   48.5529,       724,
   48.5731,       763,
   48.5933,       738,
   48.6134,       725,
   48.6336,       721,
   48.6538,       749,
    48.674,       717,
   48.6941,       749,
   48.7143,       764,
   48.7345,       773,
   48.7546,       772,
   48.7748,       731,
    48.795,       766,
   48.8151,       781,
   48.8353,       791,
   48.8555,       806,
   48.8756,       775,
   48.8958,       766,
    48.916,       732,
   48.9361,       799,
   48.9563,       766,
   48.9765,       822,
   48.9967,       789,
   49.0168,       822,
    49.037,       806,
   49.0572,       832,
   49.0773,       801,
   49.0975,       776,
   49.1177,       818,
   49.1378,       809,
    49.158,       802,
   49.1782,       824,
   49.1983,       767,
   49.2185,       785,
   49.2387,       833,
   49.2588,       821,
    49.279,       838,
   49.2992,       878,
   49.3193,       843,
   49.3395,       811,
   49.3597,       902,
   49.3799,       856,
      49.4,       873,
   49.4202,       827,
   49.4404,       864,
   49.4605,       863,
   49.4807,       894,
   49.5009,       893,
    49.521,       891,
   49.5412,       915,
   49.5614,       967,
   49.5815,       952,
   49.6017,       956,
   49.6219,       895,
    49.642,       897,
   49.6622,       998,
   49.6824,       992,
   49.7025,      1037,
   49.7227,       981,
   49.7429,      1072,
   49.7631,      1080,
   49.7832,      1160,
   49.8034,      1117,
   49.8236,      1176,
   49.8437,      1227,
   49.8639,      1260,
   49.8841,      1296,
   49.9042,      1294,
   49.9244,      1380,
   49.9446,      1478,
   49.9647,      1528,
   49.9849,      1521,
   50.0051,      1623,
   50.0252,      1698,
   50.0454,      1742,
   50.0656,      1902,
   50.0858,      1939,
   50.1059,      2084,
   50.1261,      2176,
   50.1463,      2314,
   50.1664,      2426,
   50.1866,      2568,
   50.2068,      2758,
   50.2269,      2970,
   50.2471,      3006,
   50.2673,      3158,
   50.2874,      3376,
   50.3076,      3542,
   50.3278,      3611,
   50.3479,      3856,
   50.3681,      3989,
   50.3883,      4002,
   50.4084,      4155,
   50.4286,      4189,
   50.4488,      4140,
    50.469,      4087,
   50.4891,      3935,
   50.5093,      3980,
   50.5295,      3865,
   50.5496,      3774,
   50.5698,      3598,
     50.59,      3352,
   50.6101,      3305,
   50.6303,      3205,
   50.6505,      2989,
   50.6706,      2794,
   50.6908,      2629,
    50.711,      2501,
   50.7311,      2331,
   50.7513,      2234,
   50.7715,      2120,
   50.7917,      2010,
   50.8118,      1922,
    50.832,      1787,
   50.8522,      1629,
   50.8723,      1617,
   50.8925,      1584,
   50.9127,      1456,
   50.9328,      1446,
    50.953,      1363,
   50.9732,      1289,
   50.9933,      1227,
   51.0135,      1221,
   51.0337,      1206,
   51.0538,      1126,
    51.074,      1118,
   51.0942,      1057,
   51.1143,      1085,
   51.1345,      1060,
   51.1547,       999,
   51.1749,       966,
    51.195,      1017,
   51.2152,       958,
   51.2354,       944,
   51.2555,       876,
   51.2757,       887,
   51.2959,       896,
    51.316,       918,
   51.3362,       842,
   51.3564,       874,
   51.3765,       827,
   51.3967,       823,
   51.4169,       813,
    51.437,       793,
   51.4572,       831,
   51.4774,       741,
   51.4975,       812,
   51.5177,       788,
   51.5379,       771,
   51.5581,       749,
   51.5782,       805,
   51.5984,       826,
   51.6186,       737,
   51.6387,       732,
   51.6589,       702,
   51.6791,       744,
   51.6992,       718,
   51.7194,       716,
   51.7396,       724,
   51.7597,       737,
   51.7799,       729,
   51.8001,       696,
   51.8202,       690,
   51.8404,       737,
   51.8606,       741,
   51.8808,       785,
   51.9009,       704,
   51.9211,       740,
   51.9413,       678,
   51.9614,       696,
   51.9816,       722,
   52.0018,       702,
   52.0219,       672,
   52.0421,       684,
   52.0623,       701,
   52.0824,       668,
   52.1026,       717,
   52.1228,       730,
   52.1429,       699,
   52.1631,       683,
   52.1833,       666,
   52.2034,       710,
   52.2236,       697,
   52.2438,       702,
    52.264,       671,
   52.2841,       685,
   52.3043,       690,
   52.3245,       718,
   52.3446,       654,
   52.3648,       648,
    52.385,       674,
   52.4051,       622,
   52.4253,       704,
   52.4455,       694,
   52.4656,       645,
   52.4858,       712,
    52.506,       663,
   52.5261,       671,
   52.5463,       637,
   52.5665,       626,
   52.5866,       643,
   52.6068,       620,
    52.627,       653,
   52.6472,       643,
   52.6673,       630,
   52.6875,       658,
   52.7077,       625,
   52.7278,       664,
    52.748,       674,
   52.7682,       686,
   52.7883,       663,
   52.8085,       663,
   52.8287,       636,
   52.8488,       657,
    52.869,       635,
   52.8892,       673,
   52.9093,       672,
   52.9295,       690,
   52.9497,       674,
   52.9699,       646,
     52.99,       648,
   53.0102,       660,
   53.0304,       687,
   53.0505,       653,
   53.0707,       711,
   53.0909,       652,
    53.111,       678,
   53.1312,       653,
   53.1514,       638,
   53.1715,       605,
   53.1917,       659,
   53.2119,       658,
    53.232,       652,
   53.2522,       657,
   53.2724,       666,
   53.2925,       580,
   53.3127,       624,
   53.3329,       650,
   53.3531,       635,
   53.3732,       649,
   53.3934,       643,
   53.4136,       647,
   53.4337,       673,
   53.4539,       677,
   53.4741,       630,
   53.4942,       698,
   53.5144,       674,
   53.5346,       644,
   53.5547,       618,
   53.5749,       672,
   53.5951,       704,
   53.6152,       642,
   53.6354,       648,
   53.6556,       670,
   53.6757,       661,
   53.6959,       622,
   53.7161,       673,
   53.7363,       639,
   53.7564,       680,
   53.7766,       655,
   53.7968,       674,
   53.8169,       697,
   53.8371,       674,
   53.8573,       703,
   53.8774,       644,
   53.8976,       643,
   53.9178,       698,
   53.9379,       608,
   53.9581,       666,
   53.9783,       642,
   53.9984,       675,
   54.0186,       611,
   54.0388,       659,
    54.059,       619,
   54.0791,       644,
   54.0993,       649,
   54.1195,       629,
   54.1396,       690,
   54.1598,       638,
     54.18,       671,
   54.2001,       651,
   54.2203,       633,
   54.2405,       652,
   54.2606,       588,
   54.2808,       646,
    54.301,       641,
   54.3211,       612,
   54.3413,       690,
   54.3615,       687,
   54.3816,       657,
   54.4018,       662,
    54.422,       613,
   54.4422,       644,
   54.4623,       627,
   54.4825,       675,
   54.5027,       658,
   54.5228,       627,
    54.543,       598,
   54.5632,       656,
   54.5833,       633,
   54.6035,       617,
   54.6237,       679,
   54.6438,       612,
    54.664,       624,
   54.6842,       619,
   54.7043,       665,
   54.7245,       701,
   54.7447,       628,
   54.7648,       660,
    54.785,       626,
   54.8052,       651,
   54.8254,       647,
   54.8455,       613,
   54.8657,       640,
   54.8859,       624,
    54.906,       637,
   54.9262,       630,
   54.9464,       672,
   54.9665,       641,
   54.9867,       630,
   55.0069,       632,
    55.027,       600,
   55.0472,       692,
   55.0674,       639,
   55.0875,       599,
   55.1077,       639,
   55.1279,       682,
   55.1481,       630,
   55.1682,       637,
   55.1884,       662,
   55.2086,       616,
   55.2287,       673,
   55.2489,       623,
   55.2691,       609,
   55.2892,       634,
   55.3094,       667,
   55.3296,       643,
   55.3497,       667,
   55.3699,       662,
   55.3901,       631,
   55.4102,       634,
   55.4304,       649,
   55.4506,       682,
   55.4707,       623,
   55.4909,       629,
   55.5111,       629,
   55.5313,       614,
   55.5514,       645,
   55.5716,       626,
   55.5918,       620,
   55.6119,       633,
   55.6321,       660,
   55.6523,       601,
   55.6724,       623,
   55.6926,       685,
   55.7128,       628,
   55.7329,       630,
   55.7531,       665,
   55.7733,       636,
   55.7934,       671,
   55.8136,       644,
   55.8338,       633,
    55.854,       597,
   55.8741,       656,
   55.8943,       601,
   55.9145,       623,
   55.9346,       654,
   55.9548,       641,
    55.975,       605,
   55.9951,       671,
   56.0153,       618,
   56.0355,       614,
   56.0556,       592,
   56.0758,       617,
    56.096,       623,
   56.1161,       611,
   56.1363,       626,
   56.1565,       655,
   56.1766,       652,
   56.1968,       615,
    56.217,       609,
   56.2372,       635,
   56.2573,       623,
   56.2775,       602,
   56.2977,       592,
   56.3178,       611,
    56.338,       580,
   56.3582,       644,
   56.3783,       643,
   56.3985,       620,
   56.4187,       629,
   56.4388,       602,
    56.459,       622,
   56.4792,       633,
   56.4993,       596,
   56.5195,       653,
   56.5397,       588,
   56.5598,       618,
     56.58,       610,
   56.6002,       619,
   56.6204,       633,
   56.6405,       619,
   56.6607,       611,
   56.6809,       596,
    56.701,       584,
   56.7212,       627,
   56.7414,       619,
   56.7615,       575,
   56.7817,       665,
   56.8019,       589,
    56.822,       579,
   56.8422,       606,
   56.8624,       596,
   56.8825,       646,
   56.9027,       661,
   56.9229,       645,
   56.9431,       616,
   56.9632,       639,
   56.9834,       613,
   57.0036,       640,
   57.0237,       610,
   57.0439,       621,
   57.0641,       605,
   57.0842,       585,
   57.1044,       640,
   57.1246,       625,
   57.1447,       694,
   57.1649,       609,
   57.1851,       654,
   57.2052,       634,
   57.2254,       620,
   57.2456,       606,
   57.2657,       637,
   57.2859,       600,
   57.3061,       557,
   57.3263,       595,
   57.3464,       602,
   57.3666,       601,
   57.3868,       641,
   57.4069,       593,
   57.4271,       660,
   57.4473,       594,
   57.4674,       598,
   57.4876,       604,
   57.5078,       593,
   57.5279,       590,
   57.5481,       613,
   57.5683,       598,
   57.5884,       617,
   57.6086,       620,
   57.6288,       616,
   57.6489,       611,
   57.6691,       674,
   57.6893,       609,
   57.7095,       602,
   57.7296,       578,
   57.7498,       610,
     57.77,       663,
   57.7901,       619,
   57.8103,       609,
   57.8305,       627,
   57.8506,       613,
   57.8708,       613,
    57.891,       668,
   57.9111,       576,
   57.9313,       590,
   57.9515,       622,
   57.9716,       624,
   57.9918,       633,
    58.012,       649,
   58.0322,       633,
   58.0523,       609,
   58.0725,       611,
   58.0927,       585,
   58.1128,       633,
    58.133,       649,
   58.1532,       613,
   58.1733,       605,
   58.1935,       622,
   58.2137,       620,
   58.2338,       632,
    58.254,       632,
   58.2742,       667,
   58.2943,       663,
   58.3145,       617,
   58.3347,       594,
   58.3548,       631,
    58.375,       585,
   58.3952,       611,
   58.4154,       647,
   58.4355,       611,
   58.4557,       632,
   58.4759,       618,
    58.496,       618,
   58.5162,       657,
   58.5364,       591,
   58.5565,       635,
   58.5767,       547,
   58.5969,       636,
    58.617,       614,
   58.6372,       600,
   58.6574,       617,
   58.6775,       619,
   58.6977,       619,
   58.7179,       662,
    58.738,       629,
   58.7582,       635,
   58.7784,       601,
   58.7986,       650,
   58.8187,       650,
   58.8389,       630,
   58.8591,       606,
   58.8792,       588,
   58.8994,       622,
   58.9196,       620,
   58.9397,       618,
   58.9599,       623,
   58.9801,       639,
   59.0002,       592,
   59.0204,       606,
   59.0406,       593,
   59.0607,       619,
   59.0809,       604,
   59.1011,       624,
   59.1213,       660,
   59.1414,       614,
   59.1616,       538,
   59.1818,       618,
   59.2019,       551,
   59.2221,       584,
   59.2423,       640,
   59.2624,       604,
   59.2826,       574,
   59.3028,       611,
   59.3229,       608,
   59.3431,       588,
   59.3633,       623,
   59.3834,       591,
   59.4036,       614,
   59.4238,       627,
   59.4439,       623,
   59.4641,       600,
   59.4843,       597,
   59.5045,       644,
   59.5246,       630,
   59.5448,       595,
    59.565,       647,
   59.5851,       614,
   59.6053,       605,
   59.6255,       613,
   59.6456,       641,
   59.6658,       593,
    59.686,       616,
   59.7061,       644,
   59.7263,       576,
   59.7465,       623,
   59.7666,       608,
   59.7868,       616,
    59.807,       630,
   59.8271,       643,
   59.8473,       572,
   59.8675,       627,
   59.8877,       634,
   59.9078,       595,
    59.928,       692,
   59.9482,       632,
   59.9683,       636,
   59.9885,       620,
   60.0087,       639,
   60.0288,       634,
    60.049,       638,
   60.0692,       592,
   60.0893,       643,
   60.1095,       628,
   60.1297,       610,
   60.1498,       614,
     60.17,       590,
   60.1902,       656,
   60.2104,       600,
   60.2305,       619,
   60.2507,       601,
   60.2709,       632,
    60.291,       562,
   60.3112,       598,
   60.3314,       631,
   60.3515,       581,
   60.3717,       605,
   60.3919,       565,
    60.412,       583,
   60.4322,       593,
   60.4524,       594,
   60.4725,       601,
   60.4927,       593,
   60.5129,       594,
    60.533,       650,
   60.5532,       595,
   60.5734,       598,
   60.5936,       626,
   60.6137,       569,
   60.6339,       590,
   60.6541,       628,
   60.6742,       608,
   60.6944,       607,
   60.7146,       627,
   60.7347,       583,
   60.7549,       633,
   60.7751,       644,
   60.7952,       644,
   60.8154,       643,
   60.8356,       604,
   60.8557,       631,
   60.8759,       636,
   60.8961,       595,
   60.9163,       599,
   60.9364,       623,
   60.9566,       599,
   60.9768,       574,
   60.9969,       607,
   61.0171,       624,
   61.0373,       630,
   61.0574,       570,
   61.0776,       561,
   61.0978,       599,
   61.1179,       613,
   61.1381,       612,
   61.1583,       633,
   61.1784,       621,
   61.1986,       603,
   61.2188,       600,
   61.2389,       635,
   61.2591,       601,
   61.2793,       621,
   61.2995,       595,
   61.3196,       620,
   61.3398,       628,
     61.36,       600,
   61.3801,       624,
   61.4003,       626,
   61.4205,       573,
   61.4406,       598,
   61.4608,       607,
    61.481,       595,
   61.5011,       602,
   61.5213,       582,
   61.5415,       610,
   61.5616,       635,
   61.5818,       630,
    61.602,       620,
   61.6221,       628,
   61.6423,       597,
   61.6625,       646,
   61.6827,       605,
   61.7028,       614,
    61.723,       593,
   61.7432,       618,
   61.7633,       572,
   61.7835,       628,
   61.8037,       613,
   61.8238,       623,
    61.844,       623,
   61.8642,       595,
   61.8843,       629,
   61.9045,       628,
   61.9247,       593,
   61.9448,       606,
    61.965,       630,
   61.9852,       608,
   62.0054,       602,
   62.0255,       637,
   62.0457,       605,
   62.0659,       569,
    62.086,       675,
   62.1062,       593,
   62.1264,       598,
   62.1465,       604,
   62.1667,       603,
   62.1869,       574,
    62.207,       625,
   62.2272,       570,
   62.2474,       593,
   62.2675,       585,
   62.2877,       651,
   62.3079,       571,
    62.328,       591,
   62.3482,       622,
   62.3684,       608,
   62.3886,       572,
   62.4087,       594,
   62.4289,       591,
   62.4491,       628,
   62.4692,       584,
   62.4894,       630,
   62.5096,       618,
   62.5297,       614,
   62.5499,       624,
   62.5701,       582,
   62.5902,       627,
   62.6104,       629,
   62.6306,       648,
   62.6507,       581,
   62.6709,       598,
   62.6911,       638,
   62.7112,       594,
   62.7314,       590,
   62.7516,       587,
   62.7718,       581,
   62.7919,       575,
   62.8121,       608,
   62.8323,       566,
   62.8524,       581,
   62.8726,       621,
   62.8928,       632,
   62.9129,       633,
   62.9331,       604,
   62.9533,       637,
   62.9734,       603,
   62.9936,       580,
   63.0138,       549,
   63.0339,       590,
   63.0541,       593,
   63.0743,       595,
   63.0945,       586,
   63.1146,       606,
   63.1348,       636,
    63.155,       575,
   63.1751,       609,
   63.1953,       594,
   63.2155,       612,
   63.2356,       627,
   63.2558,       604,
    63.276,       590,
   63.2961,       625,
   63.3163,       573,
   63.3365,       609,
   63.3566,       573,
   63.3768,       583,
    63.397,       593,
   63.4171,       611,
   63.4373,       574,
   63.4575,       555,
   63.4777,       610,
   63.4978,       595,
    63.518,       646,
   63.5382,       601,
   63.5583,       581,
   63.5785,       592,
   63.5987,       636,
   63.6188,       602,
    63.639,       603,
   63.6592,       604,
   63.6793,       630,
   63.6995,       613,
   63.7197,       585,
   63.7398,       604,
     63.76,       610,
   63.7802,       578,
   63.8003,       577,
   63.8205,       603,
   63.8407,       577,
   63.8609,       605,
    63.881,       587,
   63.9012,       558,
   63.9214,       591,
   63.9415,       614,
   63.9617,       549,
   63.9819,       642,
    64.002,       604,
   64.0222,       625,
   64.0424,       585,
   64.0625,       586,
   64.0827,       589,
   64.1029,       640,
    64.123,       626,
   64.1432,       637,
   64.1634,       578,
   64.1836,       596,
   64.2037,       593,
   64.2239,       610,
   64.2441,       616,
   64.2642,       619,
   64.2844,       591,
   64.3046,       600,
   64.3247,       621,
   64.3449,       645,
   64.3651,       606,
   64.3852,       588,
   64.4054,       598,
   64.4256,       608,
   64.4457,       631,
   64.4659,       640,
   64.4861,       605,
   64.5062,       618,
   64.5264,       628,
   64.5466,       649,
   64.5668,       524,
   64.5869,       594,
   64.6071,       626,
   64.6273,       592,
   64.6474,       594,
   64.6676,       595,
   64.6878,       629,
   64.7079,       602,
   64.7281,       611,
   64.7483,       618,
   64.7684,       567,
   64.7886,       628,
   64.8088,       588,
   64.8289,       609,
   64.8491,       661,
   64.8693,       627,
   64.8894,       597,
   64.9096,       573,
   64.9298,       563,
     64.95,       574,
   64.9701,       583,
   64.9903,       608,
   65.0105,       524,
   65.0306,       593,
   65.0508,       608,
    65.071,       589,
   65.0911,       594,
   65.1113,       623,
   65.1315,       582,
   65.1516,       642,
   65.1718,       612,
    65.192,       619,
   65.2121,       624,
   65.2323,       595,
   65.2525,       634,
   65.2727,       569,
   65.2928,       576,
    65.313,       569,
   65.3332,       610,
   65.3533,       586,
   65.3735,       653,
   65.3937,       635,
   65.4138,       582,
    65.434,       598,
   65.4542,       592,
   65.4743,       568,
   65.4945,       587,
   65.5147,       598,
   65.5348,       605,
    65.555,       617,
   65.5752,       597,
   65.5953,       569,
   65.6155,       602,
   65.6357,       596,
   65.6559,       598,
    65.676,       591,
   65.6962,       599,
   65.7164,       666,
   65.7365,       603,
   65.7567,       601,
   65.7769,       562,
    65.797,       619,
   65.8172,       586,
   65.8374,       582,
   65.8575,       592,
   65.8777,       575,
   65.8979,       578,
    65.918,       623,
   65.9382,       553,
   65.9584,       568,
   65.9786,       597,
   65.9987,       605,
   66.0189,       551,
   66.0391,       620,
   66.0592,       599,
   66.0794,       609,
   66.0996,       628,
   66.1197,       559,
   66.1399,       614,
   66.1601,       602,
   66.1802,       571,
   66.2004,       636,
   66.2206,       605,
   66.2407,       622,
   66.2609,       567,
   66.2811,       649,
   66.3012,       602,
   66.3214,       562,
   66.3416,       593,
   66.3618,       644,
   66.3819,       607,
   66.4021,       601,
   66.4223,       604,
   66.4424,       639,
   66.4626,       610,
   66.4828,       587,
   66.5029,       554,
   66.5231,       602,
   66.5433,       596,
   66.5634,       635,
   66.5836,       602,
   66.6038,       634,
   66.6239,       637,
   66.6441,       554,
   66.6643,       606,
   66.6844,       606,
   66.7046,       588,
   66.7248,       553,
    66.745,       580,
   66.7651,       600,
   66.7853,       594,
   66.8055,       603,
   66.8256,       608,
   66.8458,       610,
    66.866,       632,
   66.8861,       627,
   66.9063,       618,
   66.9265,       551,
   66.9466,       599,
   66.9668,       625,
    66.987,       623,
   67.0071,       571,
   67.0273,       619,
   67.0475,       604,
   67.0677,       566,
   67.0878,       591,
    67.108,       594,
   67.1282,       610,
   67.1483,       604,
   67.1685,       621,
   67.1887,       591,
   67.2088,       566,
    67.229,       593,
   67.2492,       576,
   67.2693,       617,
   67.2895,       612,
   67.3097,       608,
   67.3298,       609,
     67.35,       602,
   67.3702,       620,
   67.3903,       576,
   67.4105,       595,
   67.4307,       618,
   67.4509,       616,
    67.471,       576,
   67.4912,       586,
   67.5114,       576,
   67.5315,       592,
   67.5517,       585,
   67.5719,       612,
    67.592,       585,
   67.6122,       617,
   67.6324,       624,
   67.6525,       591,
   67.6727,       611,
   67.6929,       624,
    67.713,       598,
   67.7332,       581,
   67.7534,       635,
   67.7735,       563,
   67.7937,       584,
   67.8139,       586,
   67.8341,       567,
   67.8542,       571,
   67.8744,       592,
   67.8946,       613,
   67.9147,       620,
   67.9349,       611,
   67.9551,       615,
   67.9752,       609,
   67.9954,       617,
   68.0156,       600,
   68.0357,       573,
   68.0559,       583,
   68.0761,       609,
   68.0962,       570,
   68.1164,       590,
   68.1366,       588,
   68.1568,       587,
   68.1769,       602,
   68.1971,       593,
   68.2173,       577,
   68.2374,       603,
   68.2576,       568,
   68.2778,       607,
   68.2979,       606,
   68.3181,       579,
   68.3383,       610,
   68.3584,       579,
   68.3786,       553,
   68.3988,       600,
   68.4189,       622,
   68.4391,       602,
   68.4593,       576,
   68.4794,       606,
   68.4996,       572,
   68.5198,       619,
     68.54,       610,
   68.5601,       633,
   68.5803,       552,
   68.6005,       585,
   68.6206,       589,
   68.6408,       582,
    68.661,       588,
   68.6811,       586,
   68.7013,       641,
   68.7215,       581,
   68.7416,       582,
   68.7618,       550,
    68.782,       610,
   68.8021,       613,
   68.8223,       603,
   68.8425,       600,
   68.8626,       603,
   68.8828,       587,
    68.903,       552,
   68.9232,       578,
   68.9433,       577,
   68.9635,       596,
   68.9837,       621,
   69.0038,       560,
    69.024,       600,
   69.0442,       628,
   69.0643,       574,
   69.0845,       630,
   69.1047,       586,
   69.1248,       568,
    69.145,       567,
   69.1652,       599,
   69.1853,       606,
   69.2055,       589,
   69.2257,       599,
   69.2459,       603,
    69.266,       597,
   69.2862,       589,
   69.3064,       627,
   69.3265,       604,
   69.3467,       625,
   69.3669,       625,
    69.387,       560,
   69.4072,       601,
   69.4274,       619,
   69.4475,       595,
   69.4677,       597,
   69.4879,       585,
    69.508,       562,
   69.5282,       601,
   69.5484,       652,
   69.5685,       632,
   69.5887,       616,
   69.6089,       583,
   69.6291,       616,
   69.6492,       589,
   69.6694,       611,
   69.6896,       601,
   69.7097,       571,
   69.7299,       605,
   69.7501,       609,
   69.7702,       598,
   69.7904,       589,
   69.8106,       620,
   69.8307,       565,
   69.8509,       613,
   69.8711,       621,
   69.8912,       637,
   69.9114,       615,
   69.9316,       592,
   69.9517,       613,
   69.9719,       591,
   69.9921,       568,
   70.0123,       611,
   70.0324,       602,
   70.0526,       595,
   70.0728,       574,
   70.0929,       590,
   70.1131,       627,
   70.1333,       596,
   70.1534,       591,
   70.1736,       575,
   70.1938,       593,
   70.2139,       548,
   70.2341,       542,
   70.2543,       578,
   70.2744,       585,
   70.2946,       617,
   70.3148,       588,
    70.335,       626,
   70.3551,       582,
   70.3753,       603,
   70.3955,       602,
   70.4156,       601,
   70.4358,       598,
    70.456,       580,
   70.4761,       563,
   70.4963,       581,
   70.5165,       550,
   70.5366,       582,
   70.5568,       596,
    70.577,       590,
   70.5971,       624,
   70.6173,       580,
   70.6375,       616,
   70.6576,       619,
   70.6778,       608,
    70.698,       553,
   70.7182,       613,
   70.7383,       568,
   70.7585,       591,
   70.7787,       596,
   70.7988,       561,
    70.819,       572,
   70.8392,       578,
   70.8593,       635,
   70.8795,       557,
   70.8997,       602,
   70.9198,       600,
     70.94,       592,
   70.9602,       636,
   70.9803,       576,
   71.0005,       592,
   71.0207,       596,
   71.0409,       577,
    71.061,       620,
   71.0812,       608,
   71.1014,       623,
   71.1215,       609,
   71.1417,       610,
   71.1619,       620,
    71.182,       620,
   71.2022,       575,
   71.2224,       611,
   71.2425,       620,
   71.2627,       618,
   71.2829,       606,
    71.303,       586,
   71.3232,       595,
   71.3434,       607,
   71.3635,       581,
   71.3837,       612,
   71.4039,       580,
   71.4241,       622,
   71.4442,       593,
   71.4644,       608,
   71.4846,       604,
   71.5047,       612,
   71.5249,       620,
   71.5451,       625,
   71.5652,       622,
   71.5854,       587,
   71.6056,       607,
   71.6257,       587,
   71.6459,       598,
   71.6661,       615,
   71.6862,       614,
   71.7064,       620,
   71.7266,       580,
   71.7467,       607,
   71.7669,       621,
   71.7871,       585,
   71.8073,       596,
   71.8274,       599,
   71.8476,       574,
   71.8678,       620,
   71.8879,       621,
   71.9081,       598,
   71.9283,       612,
   71.9484,       634,
   71.9686,       601,
   71.9888,       612,
   72.0089,       561,
   72.0291,       639,
   72.0493,       589,
   72.0694,       564,
   72.0896,       584,
   72.1098,       583,
     72.13,       586,
   72.1501,       611,
   72.1703,       640,
   72.1905,       607,
   72.2106,       589,
   72.2308,       629,
    72.251,       606,
   72.2711,       584,
   72.2913,       620,
   72.3115,       614,
   72.3316,       601,
   72.3518,       655,
    72.372,       583,
   72.3921,       603,
   72.4123,       576,
   72.4325,       589,
   72.4526,       658,
   72.4728,       591,
    72.493,       597,
   72.5132,       611,
   72.5333,       588,
   72.5535,       577,
   72.5737,       597,
   72.5938,       646,
    72.614,       626,
   72.6342,       630,
   72.6543,       642,
   72.6745,       593,
   72.6947,       612,
   72.7148,       598,
    72.735,       639,
   72.7552,       644,
   72.7753,       616,
   72.7955,       642,
   72.8157,       633,
   72.8358,       622,
    72.856,       601,
   72.8762,       620,
   72.8964,       591,
   72.9165,       596,
   72.9367,       607,
   72.9569,       631,
    72.977,       591,
   72.9972,       628,
   73.0174,       644,
   73.0375,       598,
   73.0577,       690,
   73.0779,       663,
    73.098,       658,
   73.1182,       630,
   73.1384,       678,
   73.1585,       682,
   73.1787,       645,
   73.1989,       644,
   73.2191,       647,
   73.2392,       672,
   73.2594,       636,
   73.2796,       653,
   73.2997,       669,
   73.3199,       650,
   73.3401,       640,
   73.3602,       660,
   73.3804,       602,
   73.4006,       686,
   73.4207,       683,
   73.4409,       700,
   73.4611,       695,
   73.4812,       703,
   73.5014,       736,
   73.5216,       759,
   73.5417,       710,
   73.5619,       763,
   73.5821,       789,
   73.6023,       836,
   73.6224,       778,
   73.6426,       800,
   73.6628,       811,
   73.6829,       833,
   73.7031,       866,
   73.7233,       880,
   73.7434,       948,
   73.7636,       952,
   73.7838,       935,
   73.8039,       908,
   73.8241,      1022,
   73.8443,      1039,
   73.8644,      1120,
   73.8846,      1126,
   73.9048,      1122,
   73.9249,      1214,
   73.9451,      1193,
   73.9653,      1257,
   73.9855,      1282,
   74.0056,      1378,
   74.0258,      1348,
    74.046,      1381,
   74.0661,      1461,
   74.0863,      1415,
   74.1065,      1518,
   74.1266,      1517,
   74.1468,      1501,
    74.167,      1419,
   74.1871,      1426,
   74.2073,      1399,
   74.2275,      1392,
   74.2476,      1377,
   74.2678,      1360,
    74.288,      1388,
   74.3082,      1326,
   74.3283,      1357,
   74.3485,      1237,
   74.3687,      1221,
   74.3888,      1161,
    74.409,      1166,
   74.4292,      1143,
   74.4493,      1085,
   74.4695,      1042,
   74.4897,      1019,
   74.5098,      1011,
     74.53,       942,
   74.5502,       868,
   74.5703,       928,
   74.5905,       935,
   74.6107,       825,
   74.6308,       775,
    74.651,       782,
   74.6712,       777,
   74.6914,       833,
   74.7115,       782,
   74.7317,       710,
   74.7519,       736,
    74.772,       772,
   74.7922,       734,
   74.8124,       720,
   74.8325,       694,
   74.8527,       734,
   74.8729,       699,
    74.893,       667,
   74.9132,       708,
   74.9334,       738,
   74.9535,       735,
   74.9737,       693,
   74.9939,       672,
    75.014,       666,
   75.0342,       642,
   75.0544,       640,
   75.0746,       658,
   75.0947,       633,
   75.1149,       637,
   75.1351,       653,
   75.1552,       625,
   75.1754,       594,
   75.1956,       632,
   75.2157,       620,
   75.2359,       625,
   75.2561,       645,
   75.2762,       582,
   75.2964,       676,
   75.3166,       635,
   75.3367,       664,
   75.3569,       621,
   75.3771,       672,
   75.3973,       590,
   75.4174,       629,
   75.4376,       617,
   75.4578,       571,
   75.4779,       607,
   75.4981,       604,
   75.5183,       630,
   75.5384,       625,
   75.5586,       635,
   75.5788,       617,
   75.5989,       632,
   75.6191,       596,
   75.6393,       641,
   75.6594,       611,
   75.6796,       595,
   75.6998,       612,
   75.7199,       650,
   75.7401,       616,
   75.7603,       593,
   75.7805,       659,
   75.8006,       584,
   75.8208,       607,
    75.841,       585,
   75.8611,       622,
   75.8813,       598,
   75.9015,       617,
   75.9216,       622,
   75.9418,       559,
    75.962,       596,
   75.9821,       623,
   76.0023,       615,
   76.0225,       627,
   76.0426,       600,
   76.0628,       602,
    76.083,       609,
   76.1032,       607,
   76.1233,       627,
   76.1435,       589,
   76.1637,       618,
   76.1838,       576,
    76.204,       633,
   76.2242,       632,
   76.2443,       625,
   76.2645,       547,
   76.2847,       576,
   76.3048,       567,
    76.325,       585,
   76.3452,       569,
   76.3653,       595,
   76.3855,       615,
   76.4057,       585,
   76.4258,       622,
    76.446,       557,
   76.4662,       584,
   76.4864,       633,
   76.5065,       605,
   76.5267,       641,
   76.5469,       605,
    76.567,       618,
   76.5872,       574,
   76.6074,       575,
   76.6275,       641,
   76.6477,       602,
   76.6679,       594,
    76.688,       604,
   76.7082,       616,
   76.7284,       610,
   76.7485,       581,
   76.7687,       590,
   76.7889,       616,
    76.809,       596,
   76.8292,       602,
   76.8494,       616,
   76.8696,       598,
   76.8897,       605,
   76.9099,       601,
   76.9301,       617,
   76.9502,       548,
   76.9704,       590,
   76.9906,       640,
   77.0107,       589,
   77.0309,       618,
   77.0511,       579,
   77.0712,       621,
   77.0914,       643,
   77.1116,       600,
   77.1317,       608,
   77.1519,       603,
   77.1721,       643,
   77.1923,       635,
   77.2124,       600,
   77.2326,       579,
   77.2528,       583,
   77.2729,       574,
   77.2931,       589,
   77.3133,       609,
   77.3334,       601,
   77.3536,       667,
   77.3738,       606,
   77.3939,       627,
   77.4141,       551,
   77.4343,       635,
   77.4544,       627,
   77.4746,       621,
   77.4948,       587,
   77.5149,       562,
   77.5351,       615,
   77.5553,       560,
   77.5755,       537,
   77.5956,       547,
   77.6158,       574,
    77.636,       593,
   77.6561,       601,
   77.6763,       628,
   77.6965,       603,
   77.7166,       659,
   77.7368,       605,
    77.757,       636,
   77.7771,       572,
   77.7973,       627,
   77.8175,       621,
   77.8376,       594,
   77.8578,       573,
    77.878,       594,
   77.8981,       581,
   77.9183,       647,
   77.9385,       617,
   77.9587,       555,
   77.9788,       648,
    77.999,       612,
