;RAW4.00
[RawHeader]
Date=11/26/2025
EstimatedTotalTime=426.6
FurtherDQLReading=0
HardwareIndicator=65519
MeasuredTotalTime=4.29424
MeasurementFlag=1
NumberOfMeasuredRanges=1
NumberOfRanges=1
Time=08:31:18

[VarInfo]
Type=USER
Flags=0
Value=Lab Manager

[VarInfo]
Type=SAMPLEID
Flags=0
Value=Commander Sample ID

[VarInfo]
Type=COMMENT
Flags=0
Value=

[VarInfo]
Type=UTF
Flags=0
Value=

[VarInfo]
Type=CREATOR
Flags=0
Value=V5Converter

[VarInfo]
Type=CREATOR_VERSION
Flags=0
Value=4.4.16.0

[HardwareConfiguration]
AbsorptionFactor=9999
ActivateAbsorber=0
Alpha1=1.5406
Alpha2=1.54439
AlphaAverage=1.54184
AlphaRatio=0.5
Analyzer=0
Anode=Cu
AntiScatteringSlit=9999
BeamOpticsFlags=0
Beta=1.39222
BetaRelativeIntensity=0
DeactivateAbsorber=0
DetectorSlit=9999
DivergenceSlit=9999
GoniometerControl=0
GoniometerDiameter=282
GoniometerModel=256
GoniometerStage=7
Monochromator=0
NearSampleSlit=9999
PrimarySollerSlit=9999
SampleChanger=0
SecondSollerSlit=9999
SynchronousAxis=0
ThinFilmAttachment=9999
WaveUnit=A

[RangeHeader]
ActuallyUsedLambda=1.54184
AdditionalDetectorMask=257
DataRecordLength=4
DelayTime=0
DisplayPlaneNumber=0
EstimatedScanTime=427
ExtraParametersMask=0
GeneratorCurrent=10
GeneratorVoltage=30
Increment=0.0201685
Increment3=0
NumberOfCompletedData=1885
NumberOfCounts=1
NumberOfDetectors=0
NumberOfDrives=3
NumberOfEncoderDrives=0
NumberOfMeasuredData=1885
NumberOfVaryingParameters=0
RangeStartTime=0
RotationSpeed=0
ScanMode=1
ScanType=Locked Coupled
SimulatedMeasConditions=0
SlitChangerIn=0
SmootingWidth=0
Start=40.0015
Steps=1885
SynchronousRotation=0
Time=33

[VarInfo]
Type=PSD_DISCRIM
Flags=0
Value=0.11;0.5

[VarInfo]
Type=OPTICS_V5
Flags=0
Value=H4sIAAAAAAAEAO1d63KjOhJ+Fda/zqmtBIPtXKaITzm2J+OaOHbFTnKmtrZcBORYZzC4AOey//d99hl2X2x1QViIS8C3JBN+TCaodWm6+2vUUkfS/nieW9IjcD3o2GcV5bBakYBtOCa0H84qS396oBxV/mhqF44NnTnwgdt25gvHBrbf0X1dQq1t78uzB88qM99ffJHlp6enw6faoeM+yGq1qsh/9i9HxgzM9QNoe75uG6AStjJfb1WRbqEH7y1wpc/BWWXFR0joAM9w4cInL/Bj4UHLsSW+3oXrLBc9NBZ6t3Pgojcb3P8FDH+o+7OzitwBj9AAMt+CrxUfl1Lblu55QRehTORzoM8XqLDt2L4ObeBy/coBc6yHluEvdYtxoR6o1ePT02O5h8TkLue4tzhrTW2EZGjqqBswQr3oFvyXjl+9OdUtD2hyGln7c259hcAyrwHqHhq4EDFpA/KbJ8lNjfKD1ToCFipvdm00JDA1OUbR6Btwou9Ab2HpL824AjQ5tXK8m+bF4OrHhPzodEft64TGrBVWDOsoPhpP1bBWhrxWvISy1r0hIUP+4r8skMLHrm78xG8sGODQhXPdfSHkZBMMakgD9GxISBvSeHkPOIFIQeOidilHx44baRI9r5mSRmyEDSxUYBJZ3blu/xy4JnCvAfYzAL0wsdX3b8s5NVnMwIfj6+8T9KPV/l7IxHm5Jhp5z0OvBh9BE+kGCS98DAk920dCZMIVSikeHA9SJulgmhwp1bAq2ZMXfZT4B2LSAxc+QFu3ogSlwl6OWi7Ssb/0moPwnSLFGmsYPPedJdIj0qJQrgWE0MJ5JCOdEXICmjFtjmnJUA7J0tRxpRHQLUBtYA3AytxYcejGiMm4JZa46kmmLG0LrhEWBa3xcus++8A2MZDfDYZpCWdMkQKtj5nwHfcltGVFk+OFGseMJxH2qHoYWND7cnJosmJN5ku1uCnh1+H65qyTKx3Y545jAR1NEG5s6BPpdiDSG56bXcI59IlYwiKvWdVk7knrgKm+tPxb3VoCboigVyQ96CPXTshnFewlKri/oQta5l9LD8GnYEuZYx67mbHTJoqe6ZblPK0cjVCOarZnwPgJzFUVVqC1ESPOHKsWvx33pNH5Zl7erhEyxkg2xVq1lr7TdoHug6HrLIDrvzAWEyiR9/eIRfdMhLKr5fweuE21rslCEdaQRS08UPF//xMyUSUc9B0TNG8Quqbos4xMnTwz90Y+PzEHluy7tuWt5HgP/ND5vNXOHBXjLvaN2aNbYuh5A79Evm3IJvErCL6JJ23LP418rD3OPSHRTOHDEjnla/gw85sIdabECnU0BoKwUKWYS+vrz5fAfvBnTbXRwKJhj2nOjrJISkNktZevObqMVm/q5DL4SnFwGS02cm5pFninPwKqkpa1mOmKYIUieVuWOJh2nCVqyWzxf//ehzWm2Nxw9uJBQ7dIeQJnTA/KYaNePXrNFtfo7ca2MPfItOjcf/WMZelYS+paugfVBtErK9H60Ibz5bx5oBwenx4fndaUWv3kSK0pjePu32vVE4S4oAZGIvklvWZQ4W0Rs4b0UpC0Rk/7QJiajTD10yOsXjvdJsRYdyXGNhLfFkDGuto1yh6Bqz+IoV6M/ulxppzUt4kz1l2Js43EtwWcsa52jLNz4OupIMPET46w2qmqqttD2Kq7EmEbiW9jhK262jHCrvGaRirECHVXGHuvCFutth02NsJWrKMSVWsKbh08xTrZCZK+OsbSG7gQ2D5ZHRSgJJK3tspG1g4H057tH9XfH6CibEVXr/OjKbkXhfRCBYDfqOeDOWLs0nmABl3VvJn0rm5bl73OpP2tN9TkFYkJfAye/WbPftQtiMQzg4uVjCJaIvW07+CFjI1lEf6uyTEWsnm67F2lsnIJbSARW0kbWtlk6OEgY+yhA20/e3B1k8GZLoaD0auqCHeKD6S58wgk35HmwJjpNrYKCTmTxd/SeKxl8/ienF2WXefzdFk9bOTm6N5Lz546UqiqhAVciZbr3FOQY3BWIVUkVBrdJr+ZtC6H31rRcrGRhEeyyEjkXXKxo0bYURPZUVPYUbPYUQuzEywL8PxEyoQBQloib5PW7UUWe0HrokySmCrg8D78PeybkkWGzrvjVjIvuH4+FiIbUQEDqBXeyxN46LJSkY3uZbffvRqnSMV2TCAFbaXVSDlkQmfBvNq4EkHsASVZZdetcW+QpTTSOp+8YlOLgL9pYnk4ToQicvl10J4MrpMZJONJkeZyfMe6Ed+xvgA2skTfcYU8TFacvPmcsQFLZ8dr7r82tXQiP3O7dSw/voYXlO4q5vl5u6WEjcypLxqFfRNqVSHyCL4FKaFHctihVBMCjFp1f7FErbF+MBEXRsEvZLo55TW19tJ1sT+LmlpQuitTm7f2YWpolHD6sQ1TaySFsh/E0uKy2LulDZ0nkgHOmxQp25WV3aUEnW+xcHMnRJr5lluqhymm+EkWW+4491hde7Ul3ssWbV9+7YtfJA0UTQyNGXBfyVbbPA8ud74bklUw60j9YgWfilQ/I4dzraYmBmuZ2QhiKJW9qxqLdLI3h6IxR/YytzAXT1vD42MIIXVJnC4nR8cylyaJ7OZRhxZeJcCPHu2eWH2ZQFkmUJYJlGUCZZlA+fE2xcsEyvezJV4mUP6aCCsTKN8TxsoEyl8VZ2UC5XvCWZlA+ashrEygfE8IKxMoywTKMoGyTKAsEyjLBMoygbJMoCwTKMsEyjKBskygLBMoywTKMoGyTKAsEyjLBMoygbJMoHzr+KNMoCwTKD9tAiXLkUS/iumT7KzT+Cmg4tm7GScqd+cL/4UkG4arGcVOT+72h4PRhP4scnoyGTg0xcTzk2U+BzLzcGMl7XBjde+HGw8WbefceR5MR45lATfhiGNKyDjkmKsg/WbotmTQQ8ElNJZEifQE7N/XgX9k+LhXSSBnuYaE6hunwkb7FPSZfOxxRGTIPPKL8PePe2KymphYK0bAR+scevtxXAin6Q2diJrmRGpv50S+wmdgEkNlcw/RmVjQz3IliCz1U2CAaRv4kdXICV5EJGb6ELHy5h6E61FQZYr/YA2o98gntQ/sOmq5XMfxeudlE7OmVzSsTJpYMhZe0hcRy1SR/jGf/zPDjH/DR/7fA2QfErQ9hAVgol98R9I5hWWaMq5mhBds4KeJUp0oaQYcIb5mwIVtN52ZmPP5qH/5US30lx930PRnYm4HLtvZktP8/WxBxzgL44DNsuvjPeVdZqh+7nWGuODWWWeI97KTtI5vABumgB1a+LnBszXslNBZz+i3gpzt3wSirjOzGenzhQXuZgBYY/QC/KUgIkkjH65UJ0ChmfamMj+F+lCxGJtFbxiJ1dIisfpGkRjhMR6HvT9h3thLD5hkeHHgLInKwm1g17oJl16CldWVYB+fXrg3mE494KdZfesZevz3Iay2B1ceYybnbh1ywVU1LSlVPTypn6qNRkNN8LvHjcOTRv24dqQqvK8VhNAM7mETbitc+w7DEUCRgJl9i2FYh7v9roNCXwNnMmzhLkORh4SYKLFGsfsMwz42ifVFRj70nYaF9FrM/4zwzYaj4jcbRuW787sNw+F2cbvhyRss3uHlOks3wMyxzMQtgMsX+xm8pBxzcfnj6s/ujy654bCjSsOZ7olX4OYEsRyOEwezQMpa3mDWKOO8X3k4Wj2jProvYAvX6KYzLmrzl7v28CTPUlxNiU9Yi8wL0ecUu0XdWrmWfniNJk2pxn6HJHazGl4xZ9PpjyfkXwFHw4ba6R6gstmscZebgP09bgIKCIswkLYN2N/zNmAmj6JSs3YC+59rJ1Cp53Ii1c+wFVhGSkUjpbRAqXF4dHrSUJRqPWmBqqEcHldP68dqfQeB0sontAHGieA9hcKI4+SmzLSadMAw70kjnLfkkW8dVkPLMIDnOS4E3hoRE+Mi7j2jlLwRUvyl1/ekrIcPHRqtqcpiLudicNWekB9FHA7lZ+eh0Ri4qHQnkdHp3mdFwxkkShPAfO0EGXBRYgTUqKlErdE1Wb0CGJXZGHSdNqGDKCsJ1TJnP6vqMuJUZpxuDuAUxgVFpsREEgUYMFu+rxszPNBZ5WDPRwluc5pzmitr4SQ+y+l5TBQhKMMCjfMcZLfIWj48ALPjYkzSv8ZE3eHvWs9sIu2S3oNHTCEVRwtgwGnwt6KsUpyC4BLvvcgEK46DYs5u+K03mpAfRZxdFKHbnGBVi0yvQisOP5lEYfRDEPwf22IqXU7pckqXI7qcECvsd+8VLsZPznhGTjB6jZVIzZz8ZA+dc9yig6ZEJvFifFQxXo8YAd9H0PIkfi6GHAXNPKxILbzB7vVR6AbplI5NtLGOuVT/5i2e1Rn4EFu+VFtBkewhB6uqmiyUa3yqI/WAkWUTj/6JxSqYYK6D6Pv/u9RXv2COAAA=

[PSD]
ActualTwoTheta=9999
FirstUsedChannel=0
FixedPSD=0
PSDOpening=4.99171
PSDType=5

[Drive]
DriveFlags=1
DriveName=2Theta
DriveNumber=2
DriveOffset=0
OffsetIndex=0
OscillationAmplitude=0
OscillationSpeed=0
StartPosition=40.0015

[Drive]
DriveFlags=1
DriveName=Theta
DriveNumber=1
DriveOffset=0
OffsetIndex=0
OscillationAmplitude=0
OscillationSpeed=0
StartPosition=20.0007

[Drive]
DriveFlags=1
DriveName=Phi
DriveNumber=3
DriveOffset=0
OffsetIndex=0
OscillationAmplitude=0
OscillationSpeed=0
StartPosition=0

[Data]
     Angle,       PSD,
   40.0015,       678,
   40.0217,       603,
   40.0418,       621,
    40.062,       604,
   40.0822,       662,
   40.1023,       657,
   40.1225,       729,
   40.1427,       658,
   40.1628,       682,
    40.183,       646,
   40.2032,       632,
   40.2233,       640,
   40.2435,       662,
   40.2637,       674,
   40.2838,       636,
    40.304,       660,
   40.3242,       688,
   40.3444,       633,
   40.3645,       646,
   40.3847,       670,
   40.4049,       610,
    40.425,       613,
   40.4452,       686,
   40.4654,       599,
   40.4855,       682,
   40.5057,       683,
   40.5259,       658,
    40.546,       669,
   40.5662,       637,
   40.5864,       652,
   40.6065,       634,
   40.6267,       640,
   40.6469,       674,
   40.6671,       648,
   40.6872,       650,
   40.7074,       630,
   40.7276,       672,
   40.7477,       629,
   40.7679,       615,
   40.7881,       613,
   40.8082,       637,
   40.8284,       637,
   40.8486,       643,
   40.8687,       665,
   40.8889,       648,
   40.9091,       687,
   40.9292,       667,
   40.9494,       652,
   40.9696,       613,
   40.9897,       659,
   41.0099,       667,
   41.0301,       668,
   41.0503,       636,
   41.0704,       651,
   41.0906,       573,
   41.1108,       670,
   41.1309,       637,
   41.1511,       603,
   41.1713,       609,
   41.1914,       642,
   41.2116,       636,
   41.2318,       634,
   41.2519,       677,
   41.2721,       659,
   41.2923,       676,
   41.3124,       616,
   41.3326,       666,
   41.3528,       701,
   41.3729,       609,
   41.3931,       629,
   41.4133,       655,
   41.4335,       653,
   41.4536,       673,
   41.4738,       621,
    41.494,       732,
   41.5141,       605,
   41.5343,       657,
   41.5545,       653,
   41.5746,       683,
   41.5948,       639,
    41.615,       710,
   41.6351,       627,
   41.6553,       667,
   41.6755,       695,
   41.6956,       637,
   41.7158,       689,
    41.736,       685,
   41.7562,       674,
   41.7763,       685,
   41.7965,       654,
   41.8167,       633,
   41.8368,       674,
    41.857,       656,
   41.8772,       684,
   41.8973,       721,
   41.9175,       736,
   41.9377,       710,
   41.9578,       730,
    41.978,       726,
   41.9982,       767,
   42.0183,       713,
   42.0385,       774,
   42.0587,       780,
   42.0788,       772,
    42.099,       792,
   42.1192,       773,
   42.1394,       716,
   42.1595,       793,
   42.1797,       754,
   42.1999,       817,
     42.22,       767,
   42.2402,       831,
   42.2604,       807,
   42.2805,       771,
   42.3007,       784,
   42.3209,       746,
    42.341,       801,
   42.3612,       751,
   42.3814,       797,
   42.4015,       797,
   42.4217,       797,
   42.4419,       821,
    42.462,       791,
   42.4822,       821,
   42.5024,       817,
   42.5226,       794,
   42.5427,       805,
   42.5629,       743,
   42.5831,       783,
   42.6032,       799,
   42.6234,       768,
   42.6436,       771,
   42.6637,       785,
   42.6839,       786,
   42.7041,       807,
   42.7242,       878,
   42.7444,       827,
   42.7646,       837,
   42.7847,       877,
   42.8049,       833,
   42.8251,       838,
   42.8453,       794,
   42.8654,       854,
   42.8856,       878,
   42.9058,       859,
   42.9259,       912,
   42.9461,       940,
   42.9663,       932,
   42.9864,      1019,
   43.0066,      1006,
   43.0268,      1078,
   43.0469,      1161,
   43.0671,      1207,
   43.0873,      1249,
   43.1074,      1359,
   43.1276,      1324,
   43.1478,      1432,
   43.1679,      1427,
   43.1881,      1618,
   43.2083,      1657,
   43.2285,      1943,
   43.2486,      2075,
   43.2688,      2359,
    43.289,      2528,
   43.3091,      2714,
   43.3293,      3002,
   43.3495,      3650,
   43.3696,      4914,
   43.3898,      7885,
     43.41,     15731,
   43.4301,     34543,
   43.4503,     56627,
   43.4705,     55186,
   43.4906,     31477,
   43.5108,     16553,
    43.531,     16016,
   43.5511,     24989,
   43.5713,     31396,
   43.5915,     24654,
   43.6117,     12421,
   43.6318,      6149,
    43.652,      3849,
   43.6722,      2995,
   43.6923,      2530,
   43.7125,      2252,
   43.7327,      1972,
   43.7528,      1841,
    43.773,      1755,
   43.7932,      1522,
   43.8133,      1389,
   43.8335,      1277,
   43.8537,      1275,
   43.8738,      1219,
    43.894,      1113,
   43.9142,      1076,
   43.9344,      1026,
   43.9545,       948,
   43.9747,       936,
   43.9949,       964,
    44.015,       943,
   44.0352,       956,
   44.0554,       862,
   44.0755,       906,
   44.0957,       892,
   44.1159,       867,
    44.136,       902,
   44.1562,       823,
   44.1764,       839,
   44.1965,       829,
   44.2167,       847,
   44.2369,       782,
    44.257,       838,
   44.2772,       764,
   44.2974,       811,
   44.3176,       765,
   44.3377,       787,
   44.3579,       798,
   44.3781,       819,
   44.3982,       782,
   44.4184,       799,
   44.4386,       788,
   44.4587,       786,
   44.4789,       798,
   44.4991,       814,
   44.5192,       823,
   44.5394,       769,
   44.5596,       803,
   44.5797,       823,
   44.5999,       776,
   44.6201,       742,
   44.6402,       792,
   44.6604,       741,
   44.6806,       729,
   44.7008,       775,
   44.7209,       787,
   44.7411,       789,
   44.7613,       752,
   44.7814,       733,
   44.8016,       737,
   44.8218,       740,
   44.8419,       736,
   44.8621,       779,
   44.8823,       791,
   44.9024,       733,
   44.9226,       741,
   44.9428,       753,
   44.9629,       784,
   44.9831,       715,
   45.0033,       771,
   45.0235,       744,
   45.0436,       769,
   45.0638,       818,
    45.084,       709,
   45.1041,       746,
   45.1243,       725,
   45.1445,       713,
   45.1646,       680,
   45.1848,       708,
    45.205,       725,
   45.2251,       770,
   45.2453,       730,
   45.2655,       742,
   45.2856,       678,
   45.3058,       698,
    45.326,       716,
   45.3461,       697,
   45.3663,       762,
   45.3865,       747,
   45.4067,       749,
   45.4268,       716,
    45.447,       793,
   45.4672,       781,
   45.4873,       735,
   45.5075,       730,
   45.5277,       746,
   45.5478,       784,
    45.568,       733,
   45.5882,       688,
   45.6083,       703,
   45.6285,       691,
   45.6487,       661,
   45.6688,       699,
    45.689,       688,
   45.7092,       667,
   45.7294,       746,
   45.7495,       721,
   45.7697,       684,
   45.7899,       696,
     45.81,       753,
   45.8302,       707,
   45.8504,       698,
   45.8705,       666,
   45.8907,       665,
   45.9109,       690,
    45.931,       730,
   45.9512,       662,
   45.9714,       717,
   45.9915,       700,
   46.0117,       701,
   46.0319,       703,
    46.052,       715,
   46.0722,       771,
   46.0924,       708,
   46.1126,       742,
   46.1327,       691,
   46.1529,       670,
   46.1731,       695,
   46.1932,       696,
   46.2134,       639,
   46.2336,       721,
   46.2537,       740,
   46.2739,       749,
   46.2941,       686,
   46.3142,       679,
   46.3344,       695,
   46.3546,       675,
   46.3747,       691,
   46.3949,       704,
   46.4151,       670,
   46.4352,       709,
   46.4554,       670,
   46.4756,       670,
   46.4958,       693,
   46.5159,       764,
   46.5361,       703,
   46.5563,       689,
   46.5764,       735,
   46.5966,       704,
   46.6168,       715,
   46.6369,       708,
   46.6571,       716,
   46.6773,       690,
   46.6974,       702,
   46.7176,       673,
   46.7378,       690,
   46.7579,       697,
   46.7781,       705,
   46.7983,       681,
   46.8185,       718,
   46.8386,       751,
   46.8588,       690,
    46.879,       678,
   46.8991,       696,
   46.9193,       703,
   46.9395,       715,
   46.9596,       695,
   46.9798,       714,
        47,       687,
   47.0201,       675,
   47.0403,       714,
   47.0605,       689,
   47.0806,       704,
   47.1008,       669,
    47.121,       669,
   47.1411,       681,
   47.1613,       765,
   47.1815,       683,
   47.2017,       708,
   47.2218,       695,
    47.242,       697,
   47.2622,       713,
   47.2823,       690,
   47.3025,       671,
   47.3227,       724,
   47.3428,       673,
    47.363,       702,
   47.3832,       710,
   47.4033,       694,
   47.4235,       662,
   47.4437,       745,
   47.4638,       724,
    47.484,       716,
   47.5042,       669,
   47.5243,       696,
   47.5445,       701,
   47.5647,       728,
   47.5849,       731,
    47.605,       688,
   47.6252,       672,
   47.6454,       685,
   47.6655,       671,
   47.6857,       679,
   47.7059,       673,
    47.726,       691,
   47.7462,       666,
   47.7664,       645,
   47.7865,       667,
   47.8067,       668,
   47.8269,       682,
    47.847,       712,
   47.8672,       677,
   47.8874,       677,
   47.9076,       698,
   47.9277,       682,
   47.9479,       684,
   47.9681,       674,
   47.9882,       642,
   48.0084,       668,
   48.0286,       678,
   48.0487,       703,
   48.0689,       695,
   48.0891,       708,
   48.1092,       687,
   48.1294,       694,
   48.1496,       679,
   48.1697,       660,
   48.1899,       683,
   48.2101,       667,
   48.2302,       702,
   48.2504,       703,
   48.2706,       690,
   48.2908,       683,
   48.3109,       680,
   48.3311,       646,
   48.3513,       620,
   48.3714,       690,
   48.3916,       652,
   48.4118,       640,
   48.4319,       692,
   48.4521,       688,
   48.4723,       706,
   48.4924,       643,
   48.5126,       680,
   48.5328,       697,
   48.5529,       649,
   48.5731,       649,
   48.5933,       704,
   48.6134,       641,
   48.6336,       680,
   48.6538,       691,
    48.674,       672,
   48.6941,       701,
   48.7143,       663,
   48.7345,       636,
   48.7546,       691,
   48.7748,       703,
    48.795,       669,
   48.8151,       685,
   48.8353,       698,
   48.8555,       731,
   48.8756,       668,
   48.8958,       730,
    48.916,       721,
   48.9361,       689,
   48.9563,       677,
   48.9765,       699,
   48.9967,       712,
   49.0168,       676,
    49.037,       714,
   49.0572,       715,
   49.0773,       683,
   49.0975,       747,
   49.1177,       736,
   49.1378,       706,
    49.158,       665,
   49.1782,       719,
   49.1983,       702,
   49.2185,       747,
   49.2387,       700,
   49.2588,       703,
    49.279,       725,
   49.2992,       734,
   49.3193,       672,
   49.3395,       670,
   49.3597,       632,
   49.3799,       710,
      49.4,       681,
   49.4202,       690,
   49.4404,       735,
   49.4605,       665,
   49.4807,       721,
   49.5009,       703,
    49.521,       722,
   49.5412,       681,
   49.5614,       672,
   49.5815,       722,
   49.6017,       722,
   49.6219,       713,
    49.642,       687,
   49.6622,       703,
   49.6824,       720,
   49.7025,       717,
   49.7227,       749,
   49.7429,       667,
   49.7631,       690,
   49.7832,       707,
   49.8034,       746,
   49.8236,       672,
   49.8437,       717,
   49.8639,       717,
   49.8841,       741,
   49.9042,       738,
   49.9244,       708,
   49.9446,       745,
   49.9647,       683,
   49.9849,       739,
   50.0051,       753,
   50.0252,       778,
   50.0454,       754,
   50.0656,       740,
   50.0858,       780,
   50.1059,       786,
   50.1261,       791,
   50.1463,       808,
   50.1664,       849,
   50.1866,       863,
   50.2068,       889,
   50.2269,       881,
   50.2471,       909,
   50.2673,       935,
   50.2874,      1021,
   50.3076,      1021,
   50.3278,      1013,
   50.3479,      1115,
   50.3681,      1163,
   50.3883,      1196,
   50.4084,      1280,
   50.4286,      1383,
   50.4488,      1509,
    50.469,      1741,
   50.4891,      2061,
   50.5093,      2927,
   50.5295,      4594,
   50.5496,      7253,
   50.5698,     10478,
     50.59,     11534,
   50.6101,      9518,
   50.6303,      6855,
   50.6505,      4865,
   50.6706,      4547,
   50.6908,      5438,
    50.711,      6327,
   50.7311,      6322,
   50.7513,      4971,
   50.7715,      3197,
   50.7917,      2358,
   50.8118,      1744,
    50.832,      1414,
   50.8522,      1279,
   50.8723,      1157,
   50.8925,      1103,
   50.9127,      1081,
   50.9328,       990,
    50.953,       910,
   50.9732,       917,
   50.9933,       857,
   51.0135,       819,
   51.0337,       823,
   51.0538,       809,
    51.074,       818,
   51.0942,       788,
   51.1143,       784,
   51.1345,       857,
   51.1547,       744,
   51.1749,       816,
    51.195,       766,
   51.2152,       796,
   51.2354,       724,
   51.2555,       695,
   51.2757,       756,
   51.2959,       713,
    51.316,       718,
   51.3362,       690,
   51.3564,       667,
   51.3765,       687,
   51.3967,       715,
   51.4169,       727,
    51.437,       652,
   51.4572,       722,
   51.4774,       693,
   51.4975,       704,
   51.5177,       676,
   51.5379,       649,
   51.5581,       687,
   51.5782,       656,
   51.5984,       693,
   51.6186,       690,
   51.6387,       696,
   51.6589,       695,
   51.6791,       733,
   51.6992,       743,
   51.7194,       675,
   51.7396,       714,
   51.7597,       663,
   51.7799,       644,
   51.8001,       646,
   51.8202,       703,
   51.8404,       700,
   51.8606,       662,
   51.8808,       671,
   51.9009,       677,
   51.9211,       679,
   51.9413,       659,
   51.9614,       699,
   51.9816,       699,
   52.0018,       685,
   52.0219,       652,
   52.0421,       663,
   52.0623,       721,
   52.0824,       630,
   52.1026,       705,
   52.1228,       662,
   52.1429,       686,
   52.1631,       690,
   52.1833,       596,
   52.2034,       641,
   52.2236,       693,
   52.2438,       681,
    52.264,       672,
   52.2841,       654,
   52.3043,       680,
   52.3245,       641,
   52.3446,       683,
   52.3648,       702,
    52.385,       693,
   52.4051,       647,
   52.4253,       641,
   52.4455,       647,
   52.4656,       645,
   52.4858,       699,
    52.506,       647,
   52.5261,       628,
   52.5463,       654,
   52.5665,       644,
   52.5866,       624,
   52.6068,       644,
    52.627,       678,
   52.6472,       666,
   52.6673,       658,
   52.6875,       665,
   52.7077,       688,
   52.7278,       726,
    52.748,       677,
   52.7682,       661,
   52.7883,       615,
   52.8085,       659,
   52.8287,       625,
   52.8488,       649,
    52.869,       689,
   52.8892,       626,
   52.9093,       675,
   52.9295,       678,
   52.9497,       686,
   52.9699,       639,
     52.99,       675,
   53.0102,       649,
   53.0304,       652,
   53.0505,       633,
   53.0707,       619,
   53.0909,       643,
    53.111,       624,
   53.1312,       646,
   53.1514,       623,
   53.1715,       669,
   53.1917,       664,
   53.2119,       633,
    53.232,       648,
   53.2522,       660,
   53.2724,       667,
   53.2925,       648,
   53.3127,       663,
   53.3329,       602,
   53.3531,       683,
   53.3732,       659,
   53.3934,       677,
   53.4136,       632,
   53.4337,       665,
   53.4539,       694,
   53.4741,       670,
   53.4942,       621,
   53.5144,       649,
   53.5346,       644,
   53.5547,       619,
   53.5749,       693,
   53.5951,       634,
   53.6152,       697,
   53.6354,       653,
   53.6556,       649,
   53.6757,       613,
   53.6959,       659,
   53.7161,       671,
   53.7363,       670,
   53.7564,       601,
   53.7766,       661,
   53.7968,       674,
   53.8169,       621,
   53.8371,       674,
   53.8573,       617,
   53.8774,       659,
   53.8976,       643,
   53.9178,       649,
   53.9379,       661,
   53.9581,       729,
   53.9783,       681,
   53.9984,       615,
   54.0186,       680,
   54.0388,       627,
    54.059,       665,
   54.0791,       620,
   54.0993,       618,
   54.1195,       708,
   54.1396,       594,
   54.1598,       627,
     54.18,       602,
   54.2001,       636,
   54.2203,       636,
   54.2405,       685,
   54.2606,       641,
   54.2808,       603,
    54.301,       646,
   54.3211,       640,
   54.3413,       698,
   54.3615,       632,
   54.3816,       646,
   54.4018,       614,
    54.422,       650,
   54.4422,       632,
   54.4623,       621,
   54.4825,       662,
   54.5027,       645,
   54.5228,       681,
    54.543,       650,
   54.5632,       638,
   54.5833,       650,
   54.6035,       664,
   54.6237,       607,
   54.6438,       658,
    54.664,       640,
   54.6842,       635,
   54.7043,       636,
   54.7245,       713,
   54.7447,       651,
   54.7648,       642,
    54.785,       653,
   54.8052,       635,
   54.8254,       606,
   54.8455,       684,
   54.8657,       653,
   54.8859,       639,
    54.906,       633,
   54.9262,       662,
   54.9464,       614,
   54.9665,       682,
   54.9867,       645,
   55.0069,       693,
    55.027,       661,
   55.0472,       619,
   55.0674,       628,
   55.0875,       617,
   55.1077,       620,
   55.1279,       650,
   55.1481,       626,
   55.1682,       631,
   55.1884,       673,
   55.2086,       642,
   55.2287,       652,
   55.2489,       634,
   55.2691,       626,
   55.2892,       588,
   55.3094,       657,
   55.3296,       655,
   55.3497,       592,
   55.3699,       650,
   55.3901,       637,
   55.4102,       607,
   55.4304,       652,
   55.4506,       628,
   55.4707,       623,
   55.4909,       622,
   55.5111,       613,
   55.5313,       681,
   55.5514,       672,
   55.5716,       633,
   55.5918,       683,
   55.6119,       638,
   55.6321,       616,
   55.6523,       600,
   55.6724,       693,
   55.6926,       684,
   55.7128,       608,
   55.7329,       634,
   55.7531,       607,
   55.7733,       625,
   55.7934,       639,
   55.8136,       677,
   55.8338,       637,
    55.854,       665,
   55.8741,       668,
   55.8943,       637,
   55.9145,       616,
   55.9346,       665,
   55.9548,       676,
    55.975,       649,
   55.9951,       580,
   56.0153,       645,
   56.0355,       632,
   56.0556,       641,
   56.0758,       631,
    56.096,       638,
   56.1161,       656,
   56.1363,       658,
   56.1565,       666,
   56.1766,       656,
   56.1968,       656,
    56.217,       630,
   56.2372,       667,
   56.2573,       676,
   56.2775,       582,
   56.2977,       623,
   56.3178,       618,
    56.338,       655,
   56.3582,       682,
   56.3783,       603,
   56.3985,       633,
   56.4187,       607,
   56.4388,       567,
    56.459,       606,
   56.4792,       644,
   56.4993,       648,
   56.5195,       661,
   56.5397,       657,
   56.5598,       621,
     56.58,       659,
   56.6002,       618,
   56.6204,       604,
   56.6405,       607,
   56.6607,       621,
   56.6809,       638,
    56.701,       631,
   56.7212,       587,
   56.7414,       608,
   56.7615,       623,
   56.7817,       604,
   56.8019,       644,
    56.822,       659,
   56.8422,       609,
   56.8624,       649,
   56.8825,       652,
   56.9027,       635,
   56.9229,       584,
   56.9431,       576,
   56.9632,       612,
   56.9834,       627,
   57.0036,       616,
   57.0237,       630,
   57.0439,       666,
   57.0641,       601,
   57.0842,       643,
   57.1044,       645,
   57.1246,       614,
   57.1447,       662,
   57.1649,       628,
   57.1851,       624,
   57.2052,       587,
   57.2254,       624,
   57.2456,       663,
   57.2657,       669,
   57.2859,       613,
   57.3061,       619,
   57.3263,       624,
   57.3464,       612,
   57.3666,       606,
   57.3868,       626,
   57.4069,       604,
   57.4271,       592,
   57.4473,       619,
   57.4674,       635,
   57.4876,       704,
   57.5078,       656,
   57.5279,       645,
   57.5481,       602,
   57.5683,       646,
   57.5884,       595,
   57.6086,       667,
   57.6288,       613,
   57.6489,       623,
   57.6691,       630,
   57.6893,       629,
   57.7095,       588,
   57.7296,       645,
   57.7498,       597,
     57.77,       618,
   57.7901,       623,
   57.8103,       617,
   57.8305,       557,
   57.8506,       592,
   57.8708,       610,
    57.891,       647,
   57.9111,       660,
   57.9313,       657,
   57.9515,       615,
   57.9716,       598,
   57.9918,       617,
    58.012,       634,
   58.0322,       627,
   58.0523,       593,
   58.0725,       647,
   58.0927,       635,
   58.1128,       571,
    58.133,       638,
   58.1532,       633,
   58.1733,       655,
   58.1935,       642,
   58.2137,       585,
   58.2338,       598,
    58.254,       644,
   58.2742,       602,
   58.2943,       697,
   58.3145,       614,
   58.3347,       618,
   58.3548,       594,
    58.375,       608,
   58.3952,       658,
   58.4154,       611,
   58.4355,       639,
   58.4557,       624,
   58.4759,       652,
    58.496,       642,
   58.5162,       627,
   58.5364,       622,
   58.5565,       642,
   58.5767,       635,
   58.5969,       600,
    58.617,       639,
   58.6372,       607,
   58.6574,       706,
   58.6775,       646,
   58.6977,       630,
   58.7179,       638,
    58.738,       588,
   58.7582,       639,
   58.7784,       637,
   58.7986,       631,
   58.8187,       633,
   58.8389,       638,
   58.8591,       643,
   58.8792,       640,
   58.8994,       636,
   58.9196,       642,
   58.9397,       680,
   58.9599,       605,
   58.9801,       645,
   59.0002,       614,
   59.0204,       640,
   59.0406,       628,
   59.0607,       620,
   59.0809,       611,
   59.1011,       582,
   59.1213,       656,
   59.1414,       629,
   59.1616,       614,
   59.1818,       616,
   59.2019,       639,
   59.2221,       612,
   59.2423,       627,
   59.2624,       620,
   59.2826,       599,
   59.3028,       616,
   59.3229,       629,
   59.3431,       662,
   59.3633,       658,
   59.3834,       617,
   59.4036,       604,
   59.4238,       616,
   59.4439,       646,
   59.4641,       651,
   59.4843,       625,
   59.5045,       601,
   59.5246,       593,
   59.5448,       640,
    59.565,       626,
   59.5851,       603,
   59.6053,       613,
   59.6255,       586,
   59.6456,       642,
   59.6658,       604,
    59.686,       607,
   59.7061,       651,
   59.7263,       643,
   59.7465,       667,
   59.7666,       621,
   59.7868,       619,
    59.807,       619,
   59.8271,       616,
   59.8473,       614,
   59.8675,       600,
   59.8877,       634,
   59.9078,       648,
    59.928,       626,
   59.9482,       652,
   59.9683,       646,
   59.9885,       611,
   60.0087,       670,
   60.0288,       632,
    60.049,       642,
   60.0692,       608,
   60.0893,       682,
   60.1095,       614,
   60.1297,       618,
   60.1498,       650,
     60.17,       618,
   60.1902,       609,
   60.2104,       662,
   60.2305,       591,
   60.2507,       645,
   60.2709,       635,
    60.291,       638,
   60.3112,       660,
   60.3314,       625,
   60.3515,       590,
   60.3717,       650,
   60.3919,       653,
    60.412,       598,
   60.4322,       596,
   60.4524,       605,
   60.4725,       614,
   60.4927,       628,
   60.5129,       664,
    60.533,       618,
   60.5532,       614,
   60.5734,       593,
   60.5936,       592,
   60.6137,       622,
   60.6339,       678,
   60.6541,       583,
   60.6742,       626,
   60.6944,       659,
   60.7146,       622,
   60.7347,       619,
   60.7549,       653,
   60.7751,       630,
   60.7952,       574,
   60.8154,       615,
   60.8356,       621,
   60.8557,       602,
   60.8759,       631,
   60.8961,       655,
   60.9163,       570,
   60.9364,       616,
   60.9566,       680,
   60.9768,       601,
   60.9969,       683,
   61.0171,       655,
   61.0373,       630,
   61.0574,       613,
   61.0776,       572,
   61.0978,       604,
   61.1179,       652,
   61.1381,       651,
   61.1583,       619,
   61.1784,       637,
   61.1986,       602,
   61.2188,       649,
   61.2389,       662,
   61.2591,       629,
   61.2793,       606,
   61.2995,       569,
   61.3196,       570,
   61.3398,       651,
     61.36,       652,
   61.3801,       623,
   61.4003,       622,
   61.4205,       629,
   61.4406,       640,
   61.4608,       633,
    61.481,       613,
   61.5011,       619,
   61.5213,       616,
   61.5415,       608,
   61.5616,       595,
   61.5818,       642,
    61.602,       656,
   61.6221,       591,
   61.6423,       571,
   61.6625,       577,
   61.6827,       586,
   61.7028,       647,
    61.723,       650,
   61.7432,       629,
   61.7633,       625,
   61.7835,       636,
   61.8037,       614,
   61.8238,       596,
    61.844,       584,
   61.8642,       607,
   61.8843,       592,
   61.9045,       614,
   61.9247,       647,
   61.9448,       594,
    61.965,       633,
   61.9852,       615,
   62.0054,       584,
   62.0255,       645,
   62.0457,       621,
   62.0659,       634,
    62.086,       612,
   62.1062,       627,
   62.1264,       600,
   62.1465,       591,
   62.1667,       628,
   62.1869,       601,
    62.207,       584,
   62.2272,       615,
   62.2474,       632,
   62.2675,       649,
   62.2877,       613,
   62.3079,       579,
    62.328,       620,
   62.3482,       618,
   62.3684,       667,
   62.3886,       655,
   62.4087,       635,
   62.4289,       644,
   62.4491,       620,
   62.4692,       622,
   62.4894,       575,
   62.5096,       548,
   62.5297,       593,
   62.5499,       641,
   62.5701,       621,
   62.5902,       605,
   62.6104,       640,
   62.6306,       644,
   62.6507,       647,
   62.6709,       618,
   62.6911,       595,
   62.7112,       619,
   62.7314,       592,
   62.7516,       574,
   62.7718,       619,
   62.7919,       598,
   62.8121,       630,
   62.8323,       615,
   62.8524,       606,
   62.8726,       618,
   62.8928,       612,
   62.9129,       684,
   62.9331,       620,
   62.9533,       652,
   62.9734,       615,
   62.9936,       614,
   63.0138,       574,
   63.0339,       611,
   63.0541,       619,
   63.0743,       647,
   63.0945,       612,
   63.1146,       556,
   63.1348,       592,
    63.155,       630,
   63.1751,       648,
   63.1953,       571,
   63.2155,       621,
   63.2356,       623,
   63.2558,       611,
    63.276,       606,
   63.2961,       636,
   63.3163,       570,
   63.3365,       615,
   63.3566,       592,
   63.3768,       627,
    63.397,       590,
   63.4171,       665,
   63.4373,       616,
   63.4575,       576,
   63.4777,       637,
   63.4978,       592,
    63.518,       599,
   63.5382,       627,
   63.5583,       588,
   63.5785,       681,
   63.5987,       623,
   63.6188,       552,
    63.639,       568,
   63.6592,       613,
   63.6793,       630,
   63.6995,       617,
   63.7197,       607,
   63.7398,       607,
     63.76,       594,
   63.7802,       619,
   63.8003,       569,
   63.8205,       595,
   63.8407,       614,
   63.8609,       603,
    63.881,       613,
   63.9012,       615,
   63.9214,       594,
   63.9415,       649,
   63.9617,       611,
   63.9819,       636,
    64.002,       584,
   64.0222,       635,
   64.0424,       615,
   64.0625,       604,
   64.0827,       635,
   64.1029,       618,
    64.123,       587,
   64.1432,       686,
   64.1634,       633,
   64.1836,       659,
   64.2037,       637,
   64.2239,       540,
   64.2441,       601,
   64.2642,       607,
   64.2844,       609,
   64.3046,       613,
   64.3247,       620,
   64.3449,       634,
   64.3651,       612,
   64.3852,       647,
   64.4054,       600,
   64.4256,       637,
   64.4457,       642,
   64.4659,       633,
   64.4861,       623,
   64.5062,       599,
   64.5264,       599,
   64.5466,       602,
   64.5668,       627,
   64.5869,       627,
   64.6071,       654,
   64.6273,       639,
   64.6474,       591,
   64.6676,       629,
   64.6878,       607,
   64.7079,       587,
   64.7281,       588,
   64.7483,       616,
   64.7684,       602,
   64.7886,       648,
   64.8088,       623,
   64.8289,       613,
   64.8491,       642,
   64.8693,       631,
   64.8894,       621,
   64.9096,       605,
   64.9298,       592,
     64.95,       619,
   64.9701,       640,
   64.9903,       641,
   65.0105,       623,
   65.0306,       606,
   65.0508,       599,
    65.071,       628,
   65.0911,       599,
   65.1113,       579,
   65.1315,       548,
   65.1516,       645,
   65.1718,       632,
    65.192,       605,
   65.2121,       620,
   65.2323,       619,
   65.2525,       610,
   65.2727,       576,
   65.2928,       637,
    65.313,       580,
   65.3332,       664,
   65.3533,       617,
   65.3735,       620,
   65.3937,       642,
   65.4138,       639,
    65.434,       574,
   65.4542,       617,
   65.4743,       621,
   65.4945,       601,
   65.5147,       567,
   65.5348,       601,
    65.555,       606,
   65.5752,       639,
   65.5953,       651,
   65.6155,       655,
   65.6357,       624,
   65.6559,       613,
    65.676,       650,
   65.6962,       606,
   65.7164,       599,
   65.7365,       630,
   65.7567,       613,
   65.7769,       587,
    65.797,       612,
   65.8172,       661,
   65.8374,       584,
   65.8575,       619,
   65.8777,       616,
   65.8979,       607,
    65.918,       603,
   65.9382,       612,
   65.9584,       620,
   65.9786,       658,
   65.9987,       671,
   66.0189,       596,
   66.0391,       673,
   66.0592,       604,
   66.0794,       642,
   66.0996,       645,
   66.1197,       657,
   66.1399,       605,
   66.1601,       643,
   66.1802,       626,
   66.2004,       597,
   66.2206,       608,
   66.2407,       610,
   66.2609,       625,
   66.2811,       613,
   66.3012,       597,
   66.3214,       643,
   66.3416,       616,
   66.3618,       625,
   66.3819,       654,
   66.4021,       658,
   66.4223,       595,
   66.4424,       580,
   66.4626,       593,
   66.4828,       583,
   66.5029,       603,
   66.5231,       638,
   66.5433,       578,
   66.5634,       649,
   66.5836,       626,
   66.6038,       588,
   66.6239,       595,
   66.6441,       616,
   66.6643,       635,
   66.6844,       599,
   66.7046,       633,
   66.7248,       628,
    66.745,       602,
   66.7651,       638,
   66.7853,       600,
   66.8055,       611,
   66.8256,       640,
   66.8458,       646,
    66.866,       566,
   66.8861,       621,
   66.9063,       588,
   66.9265,       616,
   66.9466,       615,
   66.9668,       612,
    66.987,       627,
   67.0071,       612,
   67.0273,       635,
   67.0475,       604,
   67.0677,       625,
   67.0878,       616,
    67.108,       584,
   67.1282,       608,
   67.1483,       574,
   67.1685,       625,
   67.1887,       627,
   67.2088,       607,
    67.229,       611,
   67.2492,       591,
   67.2693,       641,
   67.2895,       648,
   67.3097,       629,
   67.3298,       575,
     67.35,       640,
   67.3702,       616,
   67.3903,       603,
   67.4105,       630,
   67.4307,       600,
   67.4509,       622,
    67.471,       615,
   67.4912,       590,
   67.5114,       650,
   67.5315,       583,
   67.5517,       579,
   67.5719,       605,
    67.592,       626,
   67.6122,       589,
   67.6324,       595,
   67.6525,       580,
   67.6727,       605,
   67.6929,       617,
    67.713,       550,
   67.7332,       580,
   67.7534,       600,
   67.7735,       609,
   67.7937,       592,
   67.8139,       607,
   67.8341,       601,
   67.8542,       584,
   67.8744,       567,
   67.8946,       659,
   67.9147,       596,
   67.9349,       602,
   67.9551,       588,
   67.9752,       626,
   67.9954,       626,
   68.0156,       626,
   68.0357,       600,
   68.0559,       577,
   68.0761,       624,
   68.0962,       601,
   68.1164,       583,
   68.1366,       627,
   68.1568,       575,
   68.1769,       605,
   68.1971,       595,
   68.2173,       603,
   68.2374,       655,
   68.2576,       582,
   68.2778,       576,
   68.2979,       577,
   68.3181,       665,
   68.3383,       624,
   68.3584,       632,
   68.3786,       644,
   68.3988,       602,
   68.4189,       597,
   68.4391,       592,
   68.4593,       628,
   68.4794,       610,
   68.4996,       588,
   68.5198,       589,
     68.54,       628,
   68.5601,       604,
   68.5803,       575,
   68.6005,       613,
   68.6206,       625,
   68.6408,       593,
    68.661,       632,
   68.6811,       591,
   68.7013,       594,
   68.7215,       665,
   68.7416,       658,
   68.7618,       610,
    68.782,       606,
   68.8021,       618,
   68.8223,       635,
   68.8425,       632,
   68.8626,       633,
   68.8828,       618,
    68.903,       625,
   68.9232,       585,
   68.9433,       604,
   68.9635,       592,
   68.9837,       606,
   69.0038,       619,
    69.024,       647,
   69.0442,       580,
   69.0643,       623,
   69.0845,       630,
   69.1047,       594,
   69.1248,       612,
    69.145,       568,
   69.1652,       607,
   69.1853,       602,
   69.2055,       605,
   69.2257,       632,
   69.2459,       598,
    69.266,       612,
   69.2862,       619,
   69.3064,       598,
   69.3265,       579,
   69.3467,       627,
   69.3669,       642,
    69.387,       601,
   69.4072,       618,
   69.4274,       630,
   69.4475,       602,
   69.4677,       579,
   69.4879,       620,
    69.508,       586,
   69.5282,       612,
   69.5484,       661,
   69.5685,       549,
   69.5887,       598,
   69.6089,       613,
   69.6291,       603,
   69.6492,       660,
   69.6694,       580,
   69.6896,       630,
   69.7097,       603,
   69.7299,       580,
   69.7501,       619,
   69.7702,       596,
   69.7904,       646,
   69.8106,       627,
   69.8307,       574,
   69.8509,       614,
   69.8711,       622,
   69.8912,       620,
   69.9114,       635,
   69.9316,       589,
   69.9517,       627,
   69.9719,       642,
   69.9921,       638,
   70.0123,       571,
   70.0324,       622,
   70.0526,       638,
   70.0728,       590,
   70.0929,       578,
   70.1131,       611,
   70.1333,       623,
   70.1534,       585,
   70.1736,       590,
   70.1938,       594,
   70.2139,       620,
   70.2341,       603,
   70.2543,       606,
   70.2744,       573,
   70.2946,       636,
   70.3148,       609,
    70.335,       626,
   70.3551,       609,
   70.3753,       556,
   70.3955,       650,
   70.4156,       620,
   70.4358,       608,
    70.456,       604,
   70.4761,       605,
   70.4963,       587,
   70.5165,       628,
   70.5366,       635,
   70.5568,       642,
    70.577,       601,
   70.5971,       611,
   70.6173,       604,
   70.6375,       614,
   70.6576,       587,
   70.6778,       612,
    70.698,       636,
   70.7182,       642,
   70.7383,       610,
   70.7585,       584,
   70.7787,       644,
   70.7988,       595,
    70.819,       622,
   70.8392,       645,
   70.8593,       576,
   70.8795,       609,
   70.8997,       622,
   70.9198,       611,
     70.94,       647,
   70.9602,       587,
   70.9803,       602,
   71.0005,       606,
   71.0207,       620,
   71.0409,       612,
    71.061,       608,
   71.0812,       613,
   71.1014,       629,
   71.1215,       640,
   71.1417,       575,
   71.1619,       593,
    71.182,       613,
   71.2022,       630,
   71.2224,       626,
   71.2425,       597,
   71.2627,       621,
   71.2829,       622,
    71.303,       593,
   71.3232,       621,
   71.3434,       596,
   71.3635,       669,
   71.3837,       625,
   71.4039,       608,
   71.4241,       662,
   71.4442,       633,
   71.4644,       635,
   71.4846,       645,
   71.5047,       588,
   71.5249,       673,
   71.5451,       660,
   71.5652,       636,
   71.5854,       638,
   71.6056,       647,
   71.6257,       619,
   71.6459,       649,
   71.6661,       605,
   71.6862,       641,
   71.7064,       592,
   71.7266,       643,
   71.7467,       635,
   71.7669,       657,
   71.7871,       638,
   71.8073,       605,
   71.8274,       624,
   71.8476,       682,
   71.8678,       624,
   71.8879,       664,
   71.9081,       626,
   71.9283,       633,
   71.9484,       625,
   71.9686,       616,
   71.9888,       633,
   72.0089,       636,
   72.0291,       602,
   72.0493,       654,
   72.0694,       637,
   72.0896,       667,
   72.1098,       652,
     72.13,       614,
   72.1501,       660,
   72.1703,       655,
   72.1905,       649,
   72.2106,       635,
   72.2308,       617,
    72.251,       594,
   72.2711,       679,
   72.2913,       578,
   72.3115,       640,
   72.3316,       656,
   72.3518,       638,
    72.372,       646,
   72.3921,       685,
   72.4123,       660,
   72.4325,       622,
   72.4526,       609,
   72.4728,       644,
    72.493,       654,
   72.5132,       666,
   72.5333,       640,
   72.5535,       589,
   72.5737,       640,
   72.5938,       631,
    72.614,       630,
   72.6342,       635,
   72.6543,       613,
   72.6745,       678,
   72.6947,       620,
   72.7148,       656,
    72.735,       596,
   72.7552,       645,
   72.7753,       614,
   72.7955,       635,
   72.8157,       663,
   72.8358,       661,
    72.856,       653,
   72.8762,       623,
   72.8964,       654,
   72.9165,       676,
   72.9367,       624,
   72.9569,       635,
    72.977,       629,
   72.9972,       621,
   73.0174,       645,
   73.0375,       624,
   73.0577,       655,
   73.0779,       624,
    73.098,       627,
   73.1182,       675,
   73.1384,       601,
   73.1585,       627,
   73.1787,       625,
   73.1989,       666,
   73.2191,       640,
   73.2392,       621,
   73.2594,       685,
   73.2796,       600,
   73.2997,       649,
   73.3199,       659,
   73.3401,       629,
   73.3602,       649,
   73.3804,       661,
   73.4006,       645,
   73.4207,       654,
   73.4409,       660,
   73.4611,       693,
   73.4812,       665,
   73.5014,       645,
   73.5216,       656,
   73.5417,       627,
   73.5619,       670,
   73.5821,       638,
   73.6023,       668,
   73.6224,       618,
   73.6426,       659,
   73.6628,       677,
   73.6829,       713,
   73.7031,       685,
   73.7233,       716,
   73.7434,       758,
   73.7636,       743,
   73.7838,       749,
   73.8039,       781,
   73.8241,       806,
   73.8443,       764,
   73.8644,       851,
   73.8846,       918,
   73.9048,       794,
   73.9249,       860,
   73.9451,       855,
   73.9653,       873,
   73.9855,       953,
   74.0056,       920,
   74.0258,       994,
    74.046,      1001,
   74.0661,      1128,
   74.0863,      1157,
   74.1065,      1270,
   74.1266,      1515,
   74.1468,      1930,
    74.167,      2695,
   74.1871,      4065,
   74.2073,      6735,
   74.2275,     10118,
   74.2476,     12312,
   74.2678,     10684,
    74.288,      7153,
   74.3082,      4375,
   74.3283,      2975,
   74.3485,      2392,
   74.3687,      2215,
   74.3888,      2449,
    74.409,      3216,
   74.4292,      4553,
   74.4493,      6050,
   74.4695,      6407,
   74.4897,      5347,
   74.5098,      3597,
     74.53,      2411,
   74.5502,      1713,
   74.5703,      1381,
   74.5905,      1188,
   74.6107,      1003,
   74.6308,       969,
    74.651,       947,
   74.6712,       871,
   74.6914,       857,
   74.7115,       806,
   74.7317,       698,
   74.7519,       756,
    74.772,       780,
   74.7922,       764,
   74.8124,       759,
   74.8325,       731,
   74.8527,       681,
   74.8729,       723,
    74.893,       733,
   74.9132,       689,
   74.9334,       710,
   74.9535,       698,
   74.9737,       642,
   74.9939,       644,
    75.014,       624,
   75.0342,       671,
   75.0544,       641,
   75.0746,       633,
   75.0947,       725,
   75.1149,       657,
   75.1351,       631,
   75.1552,       724,
   75.1754,       643,
   75.1956,       661,
   75.2157,       631,
   75.2359,       656,
   75.2561,       684,
   75.2762,       680,
   75.2964,       673,
   75.3166,       625,
   75.3367,       633,
   75.3569,       653,
   75.3771,       716,
   75.3973,       635,
   75.4174,       659,
   75.4376,       620,
   75.4578,       652,
   75.4779,       624,
   75.4981,       624,
   75.5183,       626,
   75.5384,       652,
   75.5586,       656,
   75.5788,       620,
   75.5989,       654,
   75.6191,       663,
   75.6393,       632,
   75.6594,       646,
   75.6796,       637,
   75.6998,       675,
   75.7199,       638,
   75.7401,       670,
   75.7603,       653,
   75.7805,       661,
   75.8006,       664,
   75.8208,       635,
    75.841,       635,
   75.8611,       629,
   75.8813,       616,
   75.9015,       618,
   75.9216,       626,
   75.9418,       659,
    75.962,       653,
   75.9821,       633,
   76.0023,       653,
   76.0225,       661,
   76.0426,       686,
   76.0628,       647,
    76.083,       647,
   76.1032,       612,
   76.1233,       649,
   76.1435,       644,
   76.1637,       625,
   76.1838,       652,
    76.204,       711,
   76.2242,       657,
   76.2443,       669,
   76.2645,       652,
   76.2847,       600,
   76.3048,       626,
    76.325,       655,
   76.3452,       620,
   76.3653,       639,
   76.3855,       629,
   76.4057,       612,
   76.4258,       613,
    76.446,       637,
   76.4662,       687,
   76.4864,       610,
   76.5065,       642,
   76.5267,       597,
   76.5469,       597,
    76.567,       656,
   76.5872,       572,
   76.6074,       593,
   76.6275,       645,
   76.6477,       610,
   76.6679,       605,
    76.688,       603,
   76.7082,       636,
   76.7284,       616,
   76.7485,       674,
   76.7687,       600,
   76.7889,       657,
    76.809,       598,
   76.8292,       643,
   76.8494,       651,
   76.8696,       673,
   76.8897,       638,
   76.9099,       643,
   76.9301,       612,
   76.9502,       629,
   76.9704,       595,
   76.9906,       679,
   77.0107,       604,
   77.0309,       633,
   77.0511,       652,
   77.0712,       608,
   77.0914,       636,
   77.1116,       634,
   77.1317,       644,
   77.1519,       600,
   77.1721,       619,
   77.1923,       647,
   77.2124,       621,
   77.2326,       587,
   77.2528,       630,
   77.2729,       645,
   77.2931,       631,
   77.3133,       643,
   77.3334,       659,
   77.3536,       648,
   77.3738,       663,
   77.3939,       670,
   77.4141,       638,
   77.4343,       623,
   77.4544,       650,
   77.4746,       612,
   77.4948,       613,
   77.5149,       645,
   77.5351,       601,
   77.5553,       598,
   77.5755,       612,
   77.5956,       574,
   77.6158,       622,
    77.636,       602,
   77.6561,       643,
   77.6763,       630,
   77.6965,       648,
   77.7166,       601,
   77.7368,       613,
    77.757,       592,
   77.7771,       587,
   77.7973,       636,
   77.8175,       624,
   77.8376,       594,
   77.8578,       614,
    77.878,       626,
   77.8981,       646,
   77.9183,       641,
   77.9385,       629,
   77.9587,       641,
   77.9788,       606,
    77.999,       585,
