;RAW4.00
[RawHeader]
Date=11/26/2025
EstimatedTotalTime=426.6
FurtherDQLReading=0
HardwareIndicator=65519
MeasuredTotalTime=4.29394
MeasurementFlag=1
NumberOfMeasuredRanges=1
NumberOfRanges=1
Time=01:00:41

[VarInfo]
Type=USER
Flags=0
Value=Lab Manager

[VarInfo]
Type=SAMPLEID
Flags=0
Value=Commander Sample ID

[VarInfo]
Type=COMMENT
Flags=0
Value=

[VarInfo]
Type=UTF
Flags=0
Value=

[VarInfo]
Type=CREATOR
Flags=0
Value=V5Converter

[VarInfo]
Type=CREATOR_VERSION
Flags=0
Value=4.4.16.0

[HardwareConfiguration]
AbsorptionFactor=9999
ActivateAbsorber=0
Alpha1=1.5406
Alpha2=1.54439
AlphaAverage=1.54184
AlphaRatio=0.5
Analyzer=0
Anode=Cu
AntiScatteringSlit=9999
BeamOpticsFlags=0
Beta=1.39222
BetaRelativeIntensity=0
DeactivateAbsorber=0
DetectorSlit=9999
DivergenceSlit=9999
GoniometerControl=0
GoniometerDiameter=282
GoniometerModel=256
GoniometerStage=7
Monochromator=0
NearSampleSlit=9999
PrimarySollerSlit=9999
SampleChanger=0
SecondSollerSlit=9999
SynchronousAxis=0
ThinFilmAttachment=9999
WaveUnit=A

[RangeHeader]
ActuallyUsedLambda=1.54184
AdditionalDetectorMask=257
DataRecordLength=4
DelayTime=0
DisplayPlaneNumber=0
EstimatedScanTime=427
ExtraParametersMask=0
GeneratorCurrent=10
GeneratorVoltage=30
Increment=0.0201685
Increment3=0
NumberOfCompletedData=1885
NumberOfCounts=1
NumberOfDetectors=0
NumberOfDrives=3
NumberOfEncoderDrives=0
NumberOfMeasuredData=1885
NumberOfVaryingParameters=0
RangeStartTime=0
RotationSpeed=0
ScanMode=1
ScanType=Locked Coupled
SimulatedMeasConditions=0
SlitChangerIn=0
SmootingWidth=0
Start=40.0015
Steps=1885
SynchronousRotation=0
Time=33

[VarInfo]
Type=PSD_DISCRIM
Flags=0
Value=0.11;0.5

[VarInfo]
Type=OPTICS_V5
Flags=0
Value=H4sIAAAAAAAEAO1d63KjOhJ+Fda/zqmtBIPtXKaITzm2J+OaOHbFTnKmtrZcBORYZzC4AOey//d99hl2X2x1QViIS8C3JBN+TCaodWm6+2vUUkfS/nieW9IjcD3o2GcV5bBakYBtOCa0H84qS396oBxV/mhqF44NnTnwgdt25gvHBrbf0X1dQq1t78uzB88qM99ffJHlp6enw6faoeM+yGq1qsh/9i9HxgzM9QNoe75uG6AStjJfb1WRbqEH7y1wpc/BWWXFR0joAM9w4cInL/Bj4UHLsSW+3oXrLBc9NBZ6t3Pgojcb3P8FDH+o+7OzitwBj9AAMt+CrxUfl1Lblu55QRehTORzoM8XqLDt2L4ObeBy/coBc6yHluEvdYtxoR6o1ePT02O5h8TkLue4tzhrTW2EZGjqqBswQr3oFvyXjl+9OdUtD2hyGln7c259hcAyrwHqHhq4EDFpA/KbJ8lNjfKD1ToCFipvdm00JDA1OUbR6Btwou9Ab2HpL824AjQ5tXK8m+bF4OrHhPzodEft64TGrBVWDOsoPhpP1bBWhrxWvISy1r0hIUP+4r8skMLHrm78xG8sGODQhXPdfSHkZBMMakgD9GxISBvSeHkPOIFIQeOidilHx44baRI9r5mSRmyEDSxUYBJZ3blu/xy4JnCvAfYzAL0wsdX3b8s5NVnMwIfj6+8T9KPV/l7IxHm5Jhp5z0OvBh9BE+kGCS98DAk920dCZMIVSikeHA9SJulgmhwp1bAq2ZMXfZT4B2LSAxc+QFu3ogSlwl6OWi7Ssb/0moPwnSLFGmsYPPedJdIj0qJQrgWE0MJ5JCOdEXICmjFtjmnJUA7J0tRxpRHQLUBtYA3AytxYcejGiMm4JZa46kmmLG0LrhEWBa3xcus++8A2MZDfDYZpCWdMkQKtj5nwHfcltGVFk+OFGseMJxH2qHoYWND7cnJosmJN5ku1uCnh1+H65qyTKx3Y545jAR1NEG5s6BPpdiDSG56bXcI59IlYwiKvWdVk7knrgKm+tPxb3VoCboigVyQ96CPXTshnFewlKri/oQta5l9LD8GnYEuZYx67mbHTJoqe6ZblPK0cjVCOarZnwPgJzFUVVqC1ESPOHKsWvx33pNH5Zl7erhEyxkg2xVq1lr7TdoHug6HrLIDrvzAWEyiR9/eIRfdMhLKr5fweuE21rslCEdaQRS08UPF//xMyUSUc9B0TNG8Quqbos4xMnTwz90Y+PzEHluy7tuWt5HgP/ND5vNXOHBXjLvaN2aNbYuh5A79Evm3IJvErCL6JJ23LP418rD3OPSHRTOHDEjnla/gw85sIdabECnU0BoKwUKWYS+vrz5fAfvBnTbXRwKJhj2nOjrJISkNktZevObqMVm/q5DL4SnFwGS02cm5pFninPwKqkpa1mOmKYIUieVuWOJh2nCVqyWzxf//ehzWm2Nxw9uJBQ7dIeQJnTA/KYaNePXrNFtfo7ca2MPfItOjcf/WMZelYS+paugfVBtErK9H60Ibz5bx5oBwenx4fndaUWv3kSK0pjePu32vVE4S4oAZGIvklvWZQ4W0Rs4b0UpC0Rk/7QJiajTD10yOsXjvdJsRYdyXGNhLfFkDGuto1yh6Bqz+IoV6M/ulxppzUt4kz1l2Js43EtwWcsa52jLNz4OupIMPET46w2qmqqttD2Kq7EmEbiW9jhK262jHCrvGaRirECHVXGHuvCFutth02NsJWrKMSVWsKbh08xTrZCZK+OsbSG7gQ2D5ZHRSgJJK3tspG1g4H057tH9XfH6CibEVXr/OjKbkXhfRCBYDfqOeDOWLs0nmABl3VvJn0rm5bl73OpP2tN9TkFYkJfAye/WbPftQtiMQzg4uVjCJaIvW07+CFjI1lEf6uyTEWsnm67F2lsnIJbSARW0kbWtlk6OEgY+yhA20/e3B1k8GZLoaD0auqCHeKD6S58wgk35HmwJjpNrYKCTmTxd/SeKxl8/ienF2WXefzdFk9bOTm6N5Lz546UqiqhAVciZbr3FOQY3BWIVUkVBrdJr+ZtC6H31rRcrGRhEeyyEjkXXKxo0bYURPZUVPYUbPYUQuzEywL8PxEyoQBQloib5PW7UUWe0HrokySmCrg8D78PeybkkWGzrvjVjIvuH4+FiIbUQEDqBXeyxN46LJSkY3uZbffvRqnSMV2TCAFbaXVSDlkQmfBvNq4EkHsASVZZdetcW+QpTTSOp+8YlOLgL9pYnk4ToQicvl10J4MrpMZJONJkeZyfMe6Ed+xvgA2skTfcYU8TFacvPmcsQFLZ8dr7r82tXQiP3O7dSw/voYXlO4q5vl5u6WEjcypLxqFfRNqVSHyCL4FKaFHctihVBMCjFp1f7FErbF+MBEXRsEvZLo55TW19tJ1sT+LmlpQuitTm7f2YWpolHD6sQ1TaySFsh/E0uKy2LulDZ0nkgHOmxQp25WV3aUEnW+xcHMnRJr5lluqhymm+EkWW+4491hde7Ul3ssWbV9+7YtfJA0UTQyNGXBfyVbbPA8ud74bklUw60j9YgWfilQ/I4dzraYmBmuZ2QhiKJW9qxqLdLI3h6IxR/YytzAXT1vD42MIIXVJnC4nR8cylyaJ7OZRhxZeJcCPHu2eWH2ZQFkmUJYJlGUCZZlA+fE2xcsEyvezJV4mUP6aCCsTKN8TxsoEyl8VZ2UC5XvCWZlA+ashrEygfE8IKxMoywTKMoGyTKAsEyjLBMoygbJMoCwTKMsEyjKBskygLBMoywTKMoGyTKAsEyjLBMoygbJMoHzr+KNMoCwTKD9tAiXLkUS/iumT7KzT+Cmg4tm7GScqd+cL/4UkG4arGcVOT+72h4PRhP4scnoyGTg0xcTzk2U+BzLzcGMl7XBjde+HGw8WbefceR5MR45lATfhiGNKyDjkmKsg/WbotmTQQ8ElNJZEifQE7N/XgX9k+LhXSSBnuYaE6hunwkb7FPSZfOxxRGTIPPKL8PePe2KymphYK0bAR+scevtxXAin6Q2diJrmRGpv50S+wmdgEkNlcw/RmVjQz3IliCz1U2CAaRv4kdXICV5EJGb6ELHy5h6E61FQZYr/YA2o98gntQ/sOmq5XMfxeudlE7OmVzSsTJpYMhZe0hcRy1SR/jGf/zPDjH/DR/7fA2QfErQ9hAVgol98R9I5hWWaMq5mhBds4KeJUp0oaQYcIb5mwIVtN52ZmPP5qH/5US30lx930PRnYm4HLtvZktP8/WxBxzgL44DNsuvjPeVdZqh+7nWGuODWWWeI97KTtI5vABumgB1a+LnBszXslNBZz+i3gpzt3wSirjOzGenzhQXuZgBYY/QC/KUgIkkjH65UJ0ChmfamMj+F+lCxGJtFbxiJ1dIisfpGkRjhMR6HvT9h3thLD5hkeHHgLInKwm1g17oJl16CldWVYB+fXrg3mE494KdZfesZevz3Iay2B1ceYybnbh1ywVU1LSlVPTypn6qNRkNN8LvHjcOTRv24dqQqvK8VhNAM7mETbitc+w7DEUCRgJl9i2FYh7v9roNCXwNnMmzhLkORh4SYKLFGsfsMwz42ifVFRj70nYaF9FrM/4zwzYaj4jcbRuW787sNw+F2cbvhyRss3uHlOks3wMyxzMQtgMsX+xm8pBxzcfnj6s/ujy654bCjSsOZ7olX4OYEsRyOEwezQMpa3mDWKOO8X3k4Wj2jProvYAvX6KYzLmrzl7v28CTPUlxNiU9Yi8wL0ecUu0XdWrmWfniNJk2pxn6HJHazGl4xZ9PpjyfkXwFHw4ba6R6gstmscZebgP09bgIKCIswkLYN2N/zNmAmj6JSs3YC+59rJ1Cp53Ii1c+wFVhGSkUjpbRAqXF4dHrSUJRqPWmBqqEcHldP68dqfQeB0sontAHGieA9hcKI4+SmzLSadMAw70kjnLfkkW8dVkPLMIDnOS4E3hoRE+Mi7j2jlLwRUvyl1/ekrIcPHRqtqcpiLudicNWekB9FHA7lZ+eh0Ri4qHQnkdHp3mdFwxkkShPAfO0EGXBRYgTUqKlErdE1Wb0CGJXZGHSdNqGDKCsJ1TJnP6vqMuJUZpxuDuAUxgVFpsREEgUYMFu+rxszPNBZ5WDPRwluc5pzmitr4SQ+y+l5TBQhKMMCjfMcZLfIWj48ALPjYkzSv8ZE3eHvWs9sIu2S3oNHTCEVRwtgwGnwt6KsUpyC4BLvvcgEK46DYs5u+K03mpAfRZxdFKHbnGBVi0yvQisOP5lEYfRDEPwf22IqXU7pckqXI7qcECvsd+8VLsZPznhGTjB6jZVIzZz8ZA+dc9yig6ZEJvFifFQxXo8YAd9H0PIkfi6GHAXNPKxILbzB7vVR6AbplI5NtLGOuVT/5i2e1Rn4EFu+VFtBkewhB6uqmiyUa3yqI/WAkWUTj/6JxSqYYK6D6Pv/u9RXv2COAAA=

[PSD]
ActualTwoTheta=9999
FirstUsedChannel=0
FixedPSD=0
PSDOpening=4.99171
PSDType=5

[Drive]
DriveFlags=1
DriveName=2Theta
DriveNumber=2
DriveOffset=0
OffsetIndex=0
OscillationAmplitude=0
OscillationSpeed=0
StartPosition=40.0015

[Drive]
DriveFlags=1
DriveName=Theta
DriveNumber=1
DriveOffset=0
OffsetIndex=0
OscillationAmplitude=0
OscillationSpeed=0
StartPosition=20.0007

[Drive]
DriveFlags=1
DriveName=Phi
DriveNumber=3
DriveOffset=0
OffsetIndex=0
OscillationAmplitude=0
OscillationSpeed=0
StartPosition=0

[Data]
     Angle,       PSD,
   40.0015,       653,
   40.0217,       663,
   40.0418,       632,
    40.062,       701,
   40.0822,       666,
   40.1023,       686,
   40.1225,       637,
   40.1427,       631,
   40.1628,       632,
    40.183,       677,
   40.2032,       641,
   40.2233,       651,
   40.2435,       684,
   40.2637,       636,
   40.2838,       644,
    40.304,       688,
   40.3242,       661,
   40.3444,       636,
   40.3645,       673,
   40.3847,       640,
   40.4049,       667,
    40.425,       668,
   40.4452,       639,
   40.4654,       688,
   40.4855,       653,
   40.5057,       626,
   40.5259,       672,
    40.546,       624,
   40.5662,       645,
   40.5864,       657,
   40.6065,       631,
   40.6267,       639,
   40.6469,       690,
   40.6671,       673,
   40.6872,       644,
   40.7074,       625,
   40.7276,       662,
   40.7477,       683,
   40.7679,       662,
   40.7881,       656,
   40.8082,       634,
   40.8284,       662,
   40.8486,       631,
   40.8687,       647,
   40.8889,       677,
   40.9091,       662,
   40.9292,       633,
   40.9494,       685,
   40.9696,       710,
   40.9897,       685,
   41.0099,       720,
   41.0301,       661,
   41.0503,       676,
   41.0704,       678,
   41.0906,       685,
   41.1108,       741,
   41.1309,       648,
   41.1511,       671,
   41.1713,       672,
   41.1914,       674,
   41.2116,       670,
   41.2318,       671,
   41.2519,       710,
   41.2721,       709,
   41.2923,       704,
   41.3124,       700,
   41.3326,       725,
   41.3528,       698,
   41.3729,       690,
   41.3931,       713,
   41.4133,       678,
   41.4335,       684,
   41.4536,       714,
   41.4738,       693,
    41.494,       694,
   41.5141,       694,
   41.5343,       699,
   41.5545,       682,
   41.5746,       722,
   41.5948,       684,
    41.615,       731,
   41.6351,       722,
   41.6553,       723,
   41.6755,       731,
   41.6956,       695,
   41.7158,       735,
    41.736,       732,
   41.7562,       714,
   41.7763,       712,
   41.7965,       833,
   41.8167,       755,
   41.8368,       782,
    41.857,       753,
   41.8772,       832,
   41.8973,       805,
   41.9175,       737,
   41.9377,       825,
   41.9578,       800,
    41.978,       813,
   41.9982,       786,
   42.0183,       816,
   42.0385,       805,
   42.0587,       823,
   42.0788,       791,
    42.099,       844,
   42.1192,       849,
   42.1394,       852,
   42.1595,       865,
   42.1797,       869,
   42.1999,       823,
     42.22,       877,
   42.2402,       906,
   42.2604,       827,
   42.2805,       926,
   42.3007,       886,
   42.3209,       900,
    42.341,       872,
   42.3612,       885,
   42.3814,       936,
   42.4015,       920,
   42.4217,       946,
   42.4419,       889,
    42.462,       885,
   42.4822,       966,
   42.5024,       908,
   42.5226,       972,
   42.5427,       943,
   42.5629,       959,
   42.5831,      1025,
   42.6032,       989,
   42.6234,      1010,
   42.6436,      1041,
   42.6637,      1036,
   42.6839,      1079,
   42.7041,      1094,
   42.7242,      1147,
   42.7444,      1130,
   42.7646,      1148,
   42.7847,      1202,
   42.8049,      1231,
   42.8251,      1258,
   42.8453,      1318,
   42.8654,      1338,
   42.8856,      1470,
   42.9058,      1487,
   42.9259,      1531,
   42.9461,      1652,
   42.9663,      1697,
   42.9864,      1920,
   43.0066,      1940,
   43.0268,      2208,
   43.0469,      2403,
   43.0671,      2531,
   43.0873,      2702,
   43.1074,      3027,
   43.1276,      3434,
   43.1478,      3844,
   43.1679,      4399,
   43.1881,      5011,
   43.2083,      5634,
   43.2285,      6793,
   43.2486,      8011,
   43.2688,      9341,
    43.289,     11262,
   43.3091,     13224,
   43.3293,     16425,
   43.3495,     19935,
   43.3696,     20063,
   43.3898,     17722,
     43.41,     15338,
   43.4301,     14860,
   43.4503,     15040,
   43.4705,     15067,
   43.4906,     13205,
   43.5108,     10580,
    43.531,      8932,
   43.5511,      7669,
   43.5713,      6557,
   43.5915,      5589,
   43.6117,      4943,
   43.6318,      4256,
    43.652,      3840,
   43.6722,      3447,
   43.6923,      3068,
   43.7125,      2721,
   43.7327,      2475,
   43.7528,      2366,
    43.773,      2105,
   43.7932,      2055,
   43.8133,      1886,
   43.8335,      1755,
   43.8537,      1696,
   43.8738,      1593,
    43.894,      1534,
   43.9142,      1468,
   43.9344,      1387,
   43.9545,      1284,
   43.9747,      1343,
   43.9949,      1305,
    44.015,      1183,
   44.0352,      1152,
   44.0554,      1188,
   44.0755,      1124,
   44.0957,      1165,
   44.1159,      1115,
    44.136,      1097,
   44.1562,      1024,
   44.1764,      1053,
   44.1965,      1091,
   44.2167,       964,
   44.2369,       989,
    44.257,       991,
   44.2772,       986,
   44.2974,       938,
   44.3176,       941,
   44.3377,       937,
   44.3579,       934,
   44.3781,       950,
   44.3982,       929,
   44.4184,       923,
   44.4386,       886,
   44.4587,       894,
   44.4789,       909,
   44.4991,       810,
   44.5192,       787,
   44.5394,       891,
   44.5596,       883,
   44.5797,       854,
   44.5999,       948,
   44.6201,       860,
   44.6402,       890,
   44.6604,       801,
   44.6806,       906,
   44.7008,       815,
   44.7209,       864,
   44.7411,       888,
   44.7613,       863,
   44.7814,       809,
   44.8016,       834,
   44.8218,       843,
   44.8419,       797,
   44.8621,       813,
   44.8823,       851,
   44.9024,       816,
   44.9226,       795,
   44.9428,       809,
   44.9629,       769,
   44.9831,       762,
   45.0033,       805,
   45.0235,       838,
   45.0436,       774,
   45.0638,       766,
    45.084,       791,
   45.1041,       744,
   45.1243,       818,
   45.1445,       782,
   45.1646,       808,
   45.1848,       763,
    45.205,       777,
   45.2251,       806,
   45.2453,       826,
   45.2655,       799,
   45.2856,       747,
   45.3058,       823,
    45.326,       790,
   45.3461,       836,
   45.3663,       819,
   45.3865,       780,
   45.4067,       772,
   45.4268,       780,
    45.447,       775,
   45.4672,       827,
   45.4873,       790,
   45.5075,       791,
   45.5277,       807,
   45.5478,       755,
    45.568,       738,
   45.5882,       802,
   45.6083,       752,
   45.6285,       777,
   45.6487,       738,
   45.6688,       809,
    45.689,       797,
   45.7092,       753,
   45.7294,       745,
   45.7495,       759,
   45.7697,       779,
   45.7899,       704,
     45.81,       730,
   45.8302,       752,
   45.8504,       721,
   45.8705,       768,
   45.8907,       764,
   45.9109,       723,
    45.931,       684,
   45.9512,       763,
   45.9714,       702,
   45.9915,       755,
   46.0117,       746,
   46.0319,       751,
    46.052,       705,
   46.0722,       717,
   46.0924,       777,
   46.1126,       738,
   46.1327,       728,
   46.1529,       684,
   46.1731,       731,
   46.1932,       756,
   46.2134,       742,
   46.2336,       732,
   46.2537,       701,
   46.2739,       769,
   46.2941,       746,
   46.3142,       718,
   46.3344,       719,
   46.3546,       737,
   46.3747,       687,
   46.3949,       695,
   46.4151,       687,
   46.4352,       723,
   46.4554,       678,
   46.4756,       702,
   46.4958,       741,
   46.5159,       757,
   46.5361,       704,
   46.5563,       719,
   46.5764,       737,
   46.5966,       741,
   46.6168,       707,
   46.6369,       747,
   46.6571,       742,
   46.6773,       691,
   46.6974,       722,
   46.7176,       716,
   46.7378,       721,
   46.7579,       722,
   46.7781,       729,
   46.7983,       715,
   46.8185,       707,
   46.8386,       653,
   46.8588,       689,
    46.879,       729,
   46.8991,       742,
   46.9193,       683,
   46.9395,       706,
   46.9596,       744,
   46.9798,       703,
        47,       702,
   47.0201,       756,
   47.0403,       734,
   47.0605,       731,
   47.0806,       736,
   47.1008,       708,
    47.121,       756,
   47.1411,       688,
   47.1613,       726,
   47.1815,       711,
   47.2017,       732,
   47.2218,       695,
    47.242,       706,
   47.2622,       698,
   47.2823,       710,
   47.3025,       711,
   47.3227,       690,
   47.3428,       732,
    47.363,       737,
   47.3832,       705,
   47.4033,       706,
   47.4235,       741,
   47.4437,       690,
   47.4638,       703,
    47.484,       709,
   47.5042,       677,
   47.5243,       700,
   47.5445,       720,
   47.5647,       676,
   47.5849,       676,
    47.605,       684,
   47.6252,       757,
   47.6454,       731,
   47.6655,       726,
   47.6857,       732,
   47.7059,       756,
    47.726,       703,
   47.7462,       654,
   47.7664,       708,
   47.7865,       721,
   47.8067,       697,
   47.8269,       714,
    47.847,       701,
   47.8672,       732,
   47.8874,       708,
   47.9076,       683,
   47.9277,       714,
   47.9479,       692,
   47.9681,       719,
   47.9882,       712,
   48.0084,       729,
   48.0286,       712,
   48.0487,       691,
   48.0689,       702,
   48.0891,       730,
   48.1092,       689,
   48.1294,       686,
   48.1496,       741,
   48.1697,       734,
   48.1899,       728,
   48.2101,       676,
   48.2302,       728,
   48.2504,       731,
   48.2706,       757,
   48.2908,       690,
   48.3109,       712,
   48.3311,       714,
   48.3513,       724,
   48.3714,       738,
   48.3916,       748,
   48.4118,       696,
   48.4319,       711,
   48.4521,       715,
   48.4723,       749,
   48.4924,       717,
   48.5126,       755,
   48.5328,       713,
   48.5529,       743,
   48.5731,       711,
   48.5933,       746,
   48.6134,       804,
   48.6336,       695,
   48.6538,       695,
    48.674,       751,
   48.6941,       764,
   48.7143,       771,
   48.7345,       784,
   48.7546,       730,
   48.7748,       770,
    48.795,       765,
   48.8151,       801,
   48.8353,       776,
   48.8555,       750,
   48.8756,       760,
   48.8958,       799,
    48.916,       712,
   48.9361,       811,
   48.9563,       794,
   48.9765,       787,
   48.9967,       775,
   49.0168,       739,
    49.037,       775,
   49.0572,       845,
   49.0773,       825,
   49.0975,       737,
   49.1177,       771,
   49.1378,       788,
    49.158,       747,
   49.1782,       768,
   49.1983,       764,
   49.2185,       817,
   49.2387,       761,
   49.2588,       762,
    49.279,       848,
   49.2992,       769,
   49.3193,       827,
   49.3395,       778,
   49.3597,       799,
   49.3799,       816,
      49.4,       854,
   49.4202,       856,
   49.4404,       831,
   49.4605,       866,
   49.4807,       850,
   49.5009,       840,
    49.521,       884,
   49.5412,       900,
   49.5614,       832,
   49.5815,       873,
   49.6017,       917,
   49.6219,       868,
    49.642,       955,
   49.6622,       948,
   49.6824,       897,
   49.7025,       952,
   49.7227,       901,
   49.7429,       947,
   49.7631,       974,
   49.7832,      1002,
   49.8034,      1040,
   49.8236,      1035,
   49.8437,      1071,
   49.8639,      1098,
   49.8841,      1118,
   49.9042,      1158,
   49.9244,      1130,
   49.9446,      1238,
   49.9647,      1230,
   49.9849,      1244,
   50.0051,      1374,
   50.0252,      1333,
   50.0454,      1449,
   50.0656,      1494,
   50.0858,      1527,
   50.1059,      1653,
   50.1261,      1658,
   50.1463,      1799,
   50.1664,      1867,
   50.1866,      1961,
   50.2068,      2101,
   50.2269,      2147,
   50.2471,      2369,
   50.2673,      2484,
   50.2874,      2602,
   50.3076,      2743,
   50.3278,      2899,
   50.3479,      2972,
   50.3681,      3224,
   50.3883,      3384,
   50.4084,      3630,
   50.4286,      3933,
   50.4488,      4481,
    50.469,      4994,
   50.4891,      5327,
   50.5093,      4974,
   50.5295,      4517,
   50.5496,      4087,
   50.5698,      4035,
     50.59,      4076,
   50.6101,      4216,
   50.6303,      4178,
   50.6505,      3650,
   50.6706,      3334,
   50.6908,      3112,
    50.711,      2743,
   50.7311,      2581,
   50.7513,      2481,
   50.7715,      2287,
   50.7917,      2197,
   50.8118,      2012,
    50.832,      1938,
   50.8522,      1813,
   50.8723,      1725,
   50.8925,      1608,
   50.9127,      1551,
   50.9328,      1504,
    50.953,      1474,
   50.9732,      1401,
   50.9933,      1337,
   51.0135,      1260,
   51.0337,      1177,
   51.0538,      1211,
    51.074,      1144,
   51.0942,      1060,
   51.1143,      1085,
   51.1345,       998,
   51.1547,      1048,
   51.1749,       986,
    51.195,       938,
   51.2152,       986,
   51.2354,       991,
   51.2555,       879,
   51.2757,       881,
   51.2959,       886,
    51.316,       900,
   51.3362,       868,
   51.3564,       882,
   51.3765,       834,
   51.3967,       805,
   51.4169,       824,
    51.437,       808,
   51.4572,       832,
   51.4774,       825,
   51.4975,       764,
   51.5177,       819,
   51.5379,       788,
   51.5581,       739,
   51.5782,       723,
   51.5984,       751,
   51.6186,       793,
   51.6387,       808,
   51.6589,       741,
   51.6791,       763,
   51.6992,       722,
   51.7194,       749,
   51.7396,       704,
   51.7597,       713,
   51.7799,       731,
   51.8001,       685,
   51.8202,       746,
   51.8404,       734,
   51.8606,       751,
   51.8808,       746,
   51.9009,       723,
   51.9211,       746,
   51.9413,       757,
   51.9614,       699,
   51.9816,       747,
   52.0018,       648,
   52.0219,       671,
   52.0421,       713,
   52.0623,       730,
   52.0824,       663,
   52.1026,       658,
   52.1228,       707,
   52.1429,       718,
   52.1631,       697,
   52.1833,       679,
   52.2034,       702,
   52.2236,       658,
   52.2438,       721,
    52.264,       687,
   52.2841,       650,
   52.3043,       661,
   52.3245,       714,
   52.3446,       677,
   52.3648,       663,
    52.385,       705,
   52.4051,       661,
   52.4253,       701,
   52.4455,       685,
   52.4656,       703,
   52.4858,       655,
    52.506,       669,
   52.5261,       658,
   52.5463,       675,
   52.5665,       679,
   52.5866,       716,
   52.6068,       741,
    52.627,       716,
   52.6472,       672,
   52.6673,       657,
   52.6875,       654,
   52.7077,       680,
   52.7278,       706,
    52.748,       613,
   52.7682,       631,
   52.7883,       633,
   52.8085,       692,
   52.8287,       633,
   52.8488,       682,
    52.869,       684,
   52.8892,       646,
   52.9093,       671,
   52.9295,       665,
   52.9497,       675,
   52.9699,       652,
     52.99,       674,
   53.0102,       659,
   53.0304,       685,
   53.0505,       655,
   53.0707,       693,
   53.0909,       681,
    53.111,       681,
   53.1312,       660,
   53.1514,       662,
   53.1715,       662,
   53.1917,       650,
   53.2119,       656,
    53.232,       654,
   53.2522,       639,
   53.2724,       650,
   53.2925,       654,
   53.3127,       654,
   53.3329,       644,
   53.3531,       646,
   53.3732,       650,
   53.3934,       693,
   53.4136,       654,
   53.4337,       693,
   53.4539,       668,
   53.4741,       703,
   53.4942,       684,
   53.5144,       663,
   53.5346,       687,
   53.5547,       657,
   53.5749,       671,
   53.5951,       672,
   53.6152,       628,
   53.6354,       654,
   53.6556,       663,
   53.6757,       629,
   53.6959,       673,
   53.7161,       584,
   53.7363,       663,
   53.7564,       599,
   53.7766,       681,
   53.7968,       649,
   53.8169,       626,
   53.8371,       632,
   53.8573,       644,
   53.8774,       659,
   53.8976,       677,
   53.9178,       646,
   53.9379,       673,
   53.9581,       675,
   53.9783,       664,
   53.9984,       643,
   54.0186,       650,
   54.0388,       592,
    54.059,       619,
   54.0791,       653,
   54.0993,       621,
   54.1195,       697,
   54.1396,       642,
   54.1598,       657,
     54.18,       626,
   54.2001,       669,
   54.2203,       653,
   54.2405,       665,
   54.2606,       627,
   54.2808,       633,
    54.301,       700,
   54.3211,       650,
   54.3413,       616,
   54.3615,       667,
   54.3816,       625,
   54.4018,       639,
    54.422,       585,
   54.4422,       582,
   54.4623,       656,
   54.4825,       698,
   54.5027,       644,
   54.5228,       650,
    54.543,       656,
   54.5632,       653,
   54.5833,       654,
   54.6035,       603,
   54.6237,       633,
   54.6438,       625,
    54.664,       667,
   54.6842,       664,
   54.7043,       618,
   54.7245,       680,
   54.7447,       625,
   54.7648,       646,
    54.785,       641,
   54.8052,       683,
   54.8254,       672,
   54.8455,       610,
   54.8657,       676,
   54.8859,       647,
    54.906,       672,
   54.9262,       638,
   54.9464,       611,
   54.9665,       653,
   54.9867,       614,
   55.0069,       692,
    55.027,       667,
   55.0472,       677,
   55.0674,       592,
   55.0875,       656,
   55.1077,       665,
   55.1279,       668,
   55.1481,       627,
   55.1682,       662,
   55.1884,       639,
   55.2086,       656,
   55.2287,       676,
   55.2489,       620,
   55.2691,       666,
   55.2892,       663,
   55.3094,       659,
   55.3296,       658,
   55.3497,       650,
   55.3699,       632,
   55.3901,       711,
   55.4102,       682,
   55.4304,       605,
   55.4506,       662,
   55.4707,       624,
   55.4909,       641,
   55.5111,       634,
   55.5313,       681,
   55.5514,       682,
   55.5716,       670,
   55.5918,       618,
   55.6119,       701,
   55.6321,       639,
   55.6523,       657,
   55.6724,       658,
   55.6926,       652,
   55.7128,       677,
   55.7329,       626,
   55.7531,       623,
   55.7733,       647,
   55.7934,       680,
   55.8136,       608,
   55.8338,       714,
    55.854,       619,
   55.8741,       634,
   55.8943,       641,
   55.9145,       658,
   55.9346,       647,
   55.9548,       644,
    55.975,       639,
   55.9951,       613,
   56.0153,       637,
   56.0355,       661,
   56.0556,       645,
   56.0758,       669,
    56.096,       639,
   56.1161,       622,
   56.1363,       604,
   56.1565,       655,
   56.1766,       681,
   56.1968,       631,
    56.217,       646,
   56.2372,       632,
   56.2573,       665,
   56.2775,       649,
   56.2977,       575,
   56.3178,       613,
    56.338,       574,
   56.3582,       634,
   56.3783,       645,
   56.3985,       589,
   56.4187,       644,
   56.4388,       632,
    56.459,       642,
   56.4792,       685,
   56.4993,       627,
   56.5195,       629,
   56.5397,       666,
   56.5598,       631,
     56.58,       605,
   56.6002,       607,
   56.6204,       613,
   56.6405,       660,
   56.6607,       675,
   56.6809,       629,
    56.701,       587,
   56.7212,       644,
   56.7414,       615,
   56.7615,       627,
   56.7817,       638,
   56.8019,       615,
    56.822,       649,
   56.8422,       671,
   56.8624,       612,
   56.8825,       649,
   56.9027,       585,
   56.9229,       658,
   56.9431,       578,
   56.9632,       623,
   56.9834,       620,
   57.0036,       661,
   57.0237,       640,
   57.0439,       627,
   57.0641,       587,
   57.0842,       653,
   57.1044,       624,
   57.1246,       626,
   57.1447,       612,
   57.1649,       651,
   57.1851,       644,
   57.2052,       628,
   57.2254,       628,
   57.2456,       642,
   57.2657,       655,
   57.2859,       640,
   57.3061,       657,
   57.3263,       657,
   57.3464,       603,
   57.3666,       642,
   57.3868,       662,
   57.4069,       630,
   57.4271,       656,
   57.4473,       626,
   57.4674,       615,
   57.4876,       616,
   57.5078,       649,
   57.5279,       634,
   57.5481,       651,
   57.5683,       632,
   57.5884,       593,
   57.6086,       664,
   57.6288,       646,
   57.6489,       628,
   57.6691,       583,
   57.6893,       597,
   57.7095,       610,
   57.7296,       612,
   57.7498,       632,
     57.77,       615,
   57.7901,       632,
   57.8103,       636,
   57.8305,       619,
   57.8506,       624,
   57.8708,       581,
    57.891,       603,
   57.9111,       638,
   57.9313,       622,
   57.9515,       664,
   57.9716,       623,
   57.9918,       647,
    58.012,       622,
   58.0322,       609,
   58.0523,       614,
   58.0725,       652,
   58.0927,       604,
   58.1128,       613,
    58.133,       658,
   58.1532,       617,
   58.1733,       633,
   58.1935,       659,
   58.2137,       644,
   58.2338,       624,
    58.254,       669,
   58.2742,       568,
   58.2943,       589,
   58.3145,       616,
   58.3347,       610,
   58.3548,       638,
    58.375,       652,
   58.3952,       624,
   58.4154,       655,
   58.4355,       624,
   58.4557,       607,
   58.4759,       633,
    58.496,       627,
   58.5162,       637,
   58.5364,       647,
   58.5565,       642,
   58.5767,       616,
   58.5969,       639,
    58.617,       617,
   58.6372,       605,
   58.6574,       602,
   58.6775,       617,
   58.6977,       616,
   58.7179,       604,
    58.738,       602,
   58.7582,       674,
   58.7784,       588,
   58.7986,       619,
   58.8187,       651,
   58.8389,       609,
   58.8591,       622,
   58.8792,       667,
   58.8994,       606,
   58.9196,       630,
   58.9397,       604,
   58.9599,       597,
   58.9801,       633,
   59.0002,       591,
   59.0204,       656,
   59.0406,       566,
   59.0607,       644,
   59.0809,       673,
   59.1011,       646,
   59.1213,       651,
   59.1414,       592,
   59.1616,       653,
   59.1818,       633,
   59.2019,       604,
   59.2221,       604,
   59.2423,       597,
   59.2624,       626,
   59.2826,       611,
   59.3028,       632,
   59.3229,       614,
   59.3431,       590,
   59.3633,       612,
   59.3834,       614,
   59.4036,       612,
   59.4238,       654,
   59.4439,       603,
   59.4641,       617,
   59.4843,       636,
   59.5045,       646,
   59.5246,       654,
   59.5448,       564,
    59.565,       618,
   59.5851,       647,
   59.6053,       613,
   59.6255,       651,
   59.6456,       590,
   59.6658,       631,
    59.686,       618,
   59.7061,       613,
   59.7263,       618,
   59.7465,       616,
   59.7666,       598,
   59.7868,       642,
    59.807,       604,
   59.8271,       630,
   59.8473,       631,
   59.8675,       621,
   59.8877,       618,
   59.9078,       594,
    59.928,       619,
   59.9482,       633,
   59.9683,       632,
   59.9885,       632,
   60.0087,       656,
   60.0288,       579,
    60.049,       594,
   60.0692,       636,
   60.0893,       602,
   60.1095,       680,
   60.1297,       604,
   60.1498,       599,
     60.17,       622,
   60.1902,       595,
   60.2104,       627,
   60.2305,       613,
   60.2507,       600,
   60.2709,       615,
    60.291,       614,
   60.3112,       601,
   60.3314,       628,
   60.3515,       627,
   60.3717,       628,
   60.3919,       632,
    60.412,       597,
   60.4322,       625,
   60.4524,       617,
   60.4725,       582,
   60.4927,       639,
   60.5129,       606,
    60.533,       629,
   60.5532,       632,
   60.5734,       635,
   60.5936,       611,
   60.6137,       625,
   60.6339,       601,
   60.6541,       633,
   60.6742,       643,
   60.6944,       617,
   60.7146,       607,
   60.7347,       625,
   60.7549,       601,
   60.7751,       631,
   60.7952,       596,
   60.8154,       607,
   60.8356,       597,
   60.8557,       594,
   60.8759,       599,
   60.8961,       595,
   60.9163,       581,
   60.9364,       635,
   60.9566,       614,
   60.9768,       610,
   60.9969,       612,
   61.0171,       622,
   61.0373,       593,
   61.0574,       632,
   61.0776,       583,
   61.0978,       643,
   61.1179,       621,
   61.1381,       619,
   61.1583,       587,
   61.1784,       655,
   61.1986,       693,
   61.2188,       616,
   61.2389,       647,
   61.2591,       651,
   61.2793,       658,
   61.2995,       615,
   61.3196,       630,
   61.3398,       606,
     61.36,       609,
   61.3801,       625,
   61.4003,       634,
   61.4205,       602,
   61.4406,       609,
   61.4608,       626,
    61.481,       662,
   61.5011,       612,
   61.5213,       609,
   61.5415,       615,
   61.5616,       664,
   61.5818,       599,
    61.602,       627,
   61.6221,       634,
   61.6423,       623,
   61.6625,       611,
   61.6827,       597,
   61.7028,       590,
    61.723,       601,
   61.7432,       608,
   61.7633,       653,
   61.7835,       626,
   61.8037,       606,
   61.8238,       656,
    61.844,       651,
   61.8642,       652,
   61.8843,       644,
   61.9045,       578,
   61.9247,       598,
   61.9448,       632,
    61.965,       656,
   61.9852,       622,
   62.0054,       585,
   62.0255,       608,
   62.0457,       640,
   62.0659,       641,
    62.086,       616,
   62.1062,       570,
   62.1264,       648,
   62.1465,       605,
   62.1667,       603,
   62.1869,       621,
    62.207,       652,
   62.2272,       610,
   62.2474,       609,
   62.2675,       614,
   62.2877,       632,
   62.3079,       565,
    62.328,       642,
   62.3482,       575,
   62.3684,       585,
   62.3886,       647,
   62.4087,       563,
   62.4289,       610,
   62.4491,       593,
   62.4692,       547,
   62.4894,       560,
   62.5096,       618,
   62.5297,       604,
   62.5499,       616,
   62.5701,       607,
   62.5902,       604,
   62.6104,       634,
   62.6306,       650,
   62.6507,       623,
   62.6709,       631,
   62.6911,       618,
   62.7112,       586,
   62.7314,       637,
   62.7516,       629,
   62.7718,       639,
   62.7919,       650,
   62.8121,       636,
   62.8323,       610,
   62.8524,       634,
   62.8726,       595,
   62.8928,       627,
   62.9129,       595,
   62.9331,       642,
   62.9533,       566,
   62.9734,       621,
   62.9936,       647,
   63.0138,       586,
   63.0339,       625,
   63.0541,       652,
   63.0743,       592,
   63.0945,       640,
   63.1146,       642,
   63.1348,       649,
    63.155,       605,
   63.1751,       617,
   63.1953,       610,
   63.2155,       597,
   63.2356,       640,
   63.2558,       619,
    63.276,       616,
   63.2961,       610,
   63.3163,       611,
   63.3365,       582,
   63.3566,       597,
   63.3768,       551,
    63.397,       625,
   63.4171,       605,
   63.4373,       586,
   63.4575,       623,
   63.4777,       614,
   63.4978,       618,
    63.518,       578,
   63.5382,       595,
   63.5583,       614,
   63.5785,       616,
   63.5987,       583,
   63.6188,       624,
    63.639,       618,
   63.6592,       599,
   63.6793,       651,
   63.6995,       612,
   63.7197,       582,
   63.7398,       614,
     63.76,       576,
   63.7802,       611,
   63.8003,       607,
   63.8205,       634,
   63.8407,       637,
   63.8609,       621,
    63.881,       556,
   63.9012,       606,
   63.9214,       613,
   63.9415,       619,
   63.9617,       618,
   63.9819,       606,
    64.002,       588,
   64.0222,       619,
   64.0424,       595,
   64.0625,       602,
   64.0827,       617,
   64.1029,       579,
    64.123,       617,
   64.1432,       629,
   64.1634,       595,
   64.1836,       630,
   64.2037,       616,
   64.2239,       632,
   64.2441,       608,
   64.2642,       613,
   64.2844,       592,
   64.3046,       578,
   64.3247,       605,
   64.3449,       610,
   64.3651,       617,
   64.3852,       574,
   64.4054,       584,
   64.4256,       585,
   64.4457,       622,
   64.4659,       611,
   64.4861,       608,
   64.5062,       617,
   64.5264,       620,
   64.5466,       624,
   64.5668,       586,
   64.5869,       575,
   64.6071,       581,
   64.6273,       633,
   64.6474,       552,
   64.6676,       575,
   64.6878,       633,
   64.7079,       628,
   64.7281,       573,
   64.7483,       621,
   64.7684,       562,
   64.7886,       603,
   64.8088,       627,
   64.8289,       597,
   64.8491,       604,
   64.8693,       651,
   64.8894,       591,
   64.9096,       604,
   64.9298,       608,
     64.95,       644,
   64.9701,       632,
   64.9903,       608,
   65.0105,       614,
   65.0306,       599,
   65.0508,       652,
    65.071,       603,
   65.0911,       576,
   65.1113,       631,
   65.1315,       639,
   65.1516,       657,
   65.1718,       591,
    65.192,       624,
   65.2121,       575,
   65.2323,       613,
   65.2525,       599,
   65.2727,       593,
   65.2928,       599,
    65.313,       603,
   65.3332,       630,
   65.3533,       633,
   65.3735,       623,
   65.3937,       598,
   65.4138,       630,
    65.434,       582,
   65.4542,       615,
   65.4743,       621,
   65.4945,       567,
   65.5147,       668,
   65.5348,       595,
    65.555,       582,
   65.5752,       630,
   65.5953,       586,
   65.6155,       602,
   65.6357,       612,
   65.6559,       590,
    65.676,       595,
   65.6962,       610,
   65.7164,       631,
   65.7365,       632,
   65.7567,       564,
   65.7769,       640,
    65.797,       600,
   65.8172,       629,
   65.8374,       631,
   65.8575,       610,
   65.8777,       632,
   65.8979,       566,
    65.918,       591,
   65.9382,       602,
   65.9584,       614,
   65.9786,       571,
   65.9987,       609,
   66.0189,       559,
   66.0391,       596,
   66.0592,       643,
   66.0794,       624,
   66.0996,       609,
   66.1197,       601,
   66.1399,       635,
   66.1601,       634,
   66.1802,       600,
   66.2004,       602,
   66.2206,       587,
   66.2407,       607,
   66.2609,       636,
   66.2811,       599,
   66.3012,       669,
   66.3214,       636,
   66.3416,       613,
   66.3618,       620,
   66.3819,       615,
   66.4021,       557,
   66.4223,       594,
   66.4424,       561,
   66.4626,       598,
   66.4828,       607,
   66.5029,       625,
   66.5231,       620,
   66.5433,       609,
   66.5634,       630,
   66.5836,       589,
   66.6038,       656,
   66.6239,       623,
   66.6441,       596,
   66.6643,       629,
   66.6844,       580,
   66.7046,       595,
   66.7248,       608,
    66.745,       625,
   66.7651,       593,
   66.7853,       630,
   66.8055,       594,
   66.8256,       581,
   66.8458,       582,
    66.866,       612,
   66.8861,       599,
   66.9063,       566,
   66.9265,       574,
   66.9466,       588,
   66.9668,       596,
    66.987,       581,
   67.0071,       595,
   67.0273,       621,
   67.0475,       596,
   67.0677,       631,
   67.0878,       603,
    67.108,       630,
   67.1282,       613,
   67.1483,       671,
   67.1685,       615,
   67.1887,       594,
   67.2088,       615,
    67.229,       623,
   67.2492,       578,
   67.2693,       605,
   67.2895,       590,
   67.3097,       605,
   67.3298,       586,
     67.35,       642,
   67.3702,       644,
   67.3903,       667,
   67.4105,       605,
   67.4307,       600,
   67.4509,       626,
    67.471,       660,
   67.4912,       625,
   67.5114,       598,
   67.5315,       608,
   67.5517,       624,
   67.5719,       593,
    67.592,       620,
   67.6122,       624,
   67.6324,       567,
   67.6525,       593,
   67.6727,       599,
   67.6929,       646,
    67.713,       584,
   67.7332,       639,
   67.7534,       598,
   67.7735,       620,
   67.7937,       607,
   67.8139,       590,
   67.8341,       585,
   67.8542,       642,
   67.8744,       618,
   67.8946,       612,
   67.9147,       589,
   67.9349,       609,
   67.9551,       600,
   67.9752,       640,
   67.9954,       604,
   68.0156,       619,
   68.0357,       595,
   68.0559,       613,
   68.0761,       591,
   68.0962,       608,
   68.1164,       565,
   68.1366,       619,
   68.1568,       620,
   68.1769,       621,
   68.1971,       595,
   68.2173,       596,
   68.2374,       594,
   68.2576,       603,
   68.2778,       625,
   68.2979,       619,
   68.3181,       640,
   68.3383,       573,
   68.3584,       616,
   68.3786,       622,
   68.3988,       590,
   68.4189,       623,
   68.4391,       573,
   68.4593,       630,
   68.4794,       599,
   68.4996,       629,
   68.5198,       603,
     68.54,       621,
   68.5601,       601,
   68.5803,       659,
   68.6005,       646,
   68.6206,       567,
   68.6408,       657,
    68.661,       601,
   68.6811,       561,
   68.7013,       670,
   68.7215,       614,
   68.7416,       607,
   68.7618,       630,
    68.782,       592,
   68.8021,       598,
   68.8223,       569,
   68.8425,       612,
   68.8626,       623,
   68.8828,       605,
    68.903,       617,
   68.9232,       633,
   68.9433,       606,
   68.9635,       606,
   68.9837,       606,
   69.0038,       566,
    69.024,       592,
   69.0442,       633,
   69.0643,       637,
   69.0845,       611,
   69.1047,       613,
   69.1248,       613,
    69.145,       590,
   69.1652,       579,
   69.1853,       594,
   69.2055,       603,
   69.2257,       619,
   69.2459,       656,
    69.266,       577,
   69.2862,       610,
   69.3064,       614,
   69.3265,       607,
   69.3467,       586,
   69.3669,       592,
    69.387,       578,
   69.4072,       622,
   69.4274,       589,
   69.4475,       588,
   69.4677,       589,
   69.4879,       586,
    69.508,       563,
   69.5282,       608,
   69.5484,       605,
   69.5685,       631,
   69.5887,       619,
   69.6089,       611,
   69.6291,       587,
   69.6492,       586,
   69.6694,       601,
   69.6896,       647,
   69.7097,       569,
   69.7299,       590,
   69.7501,       624,
   69.7702,       631,
   69.7904,       603,
   69.8106,       640,
   69.8307,       583,
   69.8509,       621,
   69.8711,       639,
   69.8912,       608,
   69.9114,       619,
   69.9316,       585,
   69.9517,       585,
   69.9719,       615,
   69.9921,       590,
   70.0123,       585,
   70.0324,       559,
   70.0526,       599,
   70.0728,       613,
   70.0929,       596,
   70.1131,       617,
   70.1333,       649,
   70.1534,       681,
   70.1736,       610,
   70.1938,       622,
   70.2139,       617,
   70.2341,       588,
   70.2543,       578,
   70.2744,       606,
   70.2946,       555,
   70.3148,       596,
    70.335,       545,
   70.3551,       622,
   70.3753,       593,
   70.3955,       607,
   70.4156,       609,
   70.4358,       629,
    70.456,       613,
   70.4761,       618,
   70.4963,       640,
   70.5165,       594,
   70.5366,       630,
   70.5568,       623,
    70.577,       587,
   70.5971,       638,
   70.6173,       593,
   70.6375,       639,
   70.6576,       626,
   70.6778,       607,
    70.698,       641,
   70.7182,       671,
   70.7383,       615,
   70.7585,       617,
   70.7787,       583,
   70.7988,       633,
    70.819,       593,
   70.8392,       569,
   70.8593,       611,
   70.8795,       626,
   70.8997,       604,
   70.9198,       591,
     70.94,       596,
   70.9602,       562,
   70.9803,       599,
   71.0005,       583,
   71.0207,       640,
   71.0409,       589,
    71.061,       558,
   71.0812,       611,
   71.1014,       602,
   71.1215,       589,
   71.1417,       617,
   71.1619,       571,
    71.182,       605,
   71.2022,       624,
   71.2224,       602,
   71.2425,       649,
   71.2627,       617,
   71.2829,       629,
    71.303,       611,
   71.3232,       635,
   71.3434,       595,
   71.3635,       626,
   71.3837,       601,
   71.4039,       605,
   71.4241,       588,
   71.4442,       639,
   71.4644,       655,
   71.4846,       604,
   71.5047,       612,
   71.5249,       605,
   71.5451,       603,
   71.5652,       591,
   71.5854,       588,
   71.6056,       624,
   71.6257,       615,
   71.6459,       595,
   71.6661,       602,
   71.6862,       588,
   71.7064,       614,
   71.7266,       608,
   71.7467,       607,
   71.7669,       580,
   71.7871,       647,
   71.8073,       648,
   71.8274,       593,
   71.8476,       573,
   71.8678,       591,
   71.8879,       578,
   71.9081,       635,
   71.9283,       674,
   71.9484,       663,
   71.9686,       631,
   71.9888,       620,
   72.0089,       650,
   72.0291,       623,
   72.0493,       611,
   72.0694,       583,
   72.0896,       618,
   72.1098,       589,
     72.13,       597,
   72.1501,       666,
   72.1703,       574,
   72.1905,       582,
   72.2106,       634,
   72.2308,       577,
    72.251,       585,
   72.2711,       621,
   72.2913,       600,
   72.3115,       621,
   72.3316,       621,
   72.3518,       620,
    72.372,       594,
   72.3921,       644,
   72.4123,       616,
   72.4325,       665,
   72.4526,       627,
   72.4728,       597,
    72.493,       605,
   72.5132,       618,
   72.5333,       654,
   72.5535,       600,
   72.5737,       621,
   72.5938,       614,
    72.614,       634,
   72.6342,       603,
   72.6543,       623,
   72.6745,       584,
   72.6947,       659,
   72.7148,       617,
    72.735,       580,
   72.7552,       615,
   72.7753,       636,
   72.7955,       623,
   72.8157,       638,
   72.8358,       606,
    72.856,       623,
   72.8762,       646,
   72.8964,       642,
   72.9165,       654,
   72.9367,       633,
   72.9569,       675,
    72.977,       695,
   72.9972,       653,
   73.0174,       602,
   73.0375,       674,
   73.0577,       655,
   73.0779,       632,
    73.098,       676,
   73.1182,       684,
   73.1384,       648,
   73.1585,       672,
   73.1787,       661,
   73.1989,       631,
   73.2191,       641,
   73.2392,       635,
   73.2594,       670,
   73.2796,       744,
   73.2997,       660,
   73.3199,       644,
   73.3401,       681,
   73.3602,       675,
   73.3804,       657,
   73.4006,       706,
   73.4207,       689,
   73.4409,       701,
   73.4611,       689,
   73.4812,       695,
   73.5014,       718,
   73.5216,       752,
   73.5417,       684,
   73.5619,       742,
   73.5821,       767,
   73.6023,       771,
   73.6224,       763,
   73.6426,       803,
   73.6628,       783,
   73.6829,       816,
   73.7031,       784,
   73.7233,       807,
   73.7434,       817,
   73.7636,       856,
   73.7838,       949,
   73.8039,       929,
   73.8241,       905,
   73.8443,      1040,
   73.8644,       970,
   73.8846,      1075,
   73.9048,      1010,
   73.9249,      1098,
   73.9451,      1110,
   73.9653,      1170,
   73.9855,      1215,
   74.0056,      1289,
   74.0258,      1376,
    74.046,      1417,
   74.0661,      1562,
   74.0863,      1690,
   74.1065,      2012,
   74.1266,      2443,
   74.1468,      3103,
    74.167,      2956,
   74.1871,      2556,
   74.2073,      2100,
   74.2275,      1695,
   74.2476,      1697,
   74.2678,      1655,
    74.288,      1647,
   74.3082,      1725,
   74.3283,      1751,
   74.3485,      1960,
   74.3687,      2179,
   74.3888,      1909,
    74.409,      1772,
   74.4292,      1461,
   74.4493,      1305,
   74.4695,      1221,
   74.4897,      1179,
   74.5098,      1153,
     74.53,      1093,
   74.5502,      1049,
   74.5703,       938,
   74.5905,       955,
   74.6107,       971,
   74.6308,       899,
    74.651,       855,
   74.6712,       831,
   74.6914,       827,
   74.7115,       828,
   74.7317,       791,
   74.7519,       789,
    74.772,       767,
   74.7922,       758,
   74.8124,       732,
   74.8325,       762,
   74.8527,       708,
   74.8729,       733,
    74.893,       772,
   74.9132,       663,
   74.9334,       713,
   74.9535,       653,
   74.9737,       698,
   74.9939,       716,
    75.014,       685,
   75.0342,       695,
   75.0544,       667,
   75.0746,       692,
   75.0947,       711,
   75.1149,       667,
   75.1351,       631,
   75.1552,       654,
   75.1754,       665,
   75.1956,       674,
   75.2157,       646,
   75.2359,       610,
   75.2561,       607,
   75.2762,       598,
   75.2964,       624,
   75.3166,       677,
   75.3367,       614,
   75.3569,       654,
   75.3771,       686,
   75.3973,       638,
   75.4174,       641,
   75.4376,       627,
   75.4578,       578,
   75.4779,       633,
   75.4981,       663,
   75.5183,       637,
   75.5384,       613,
   75.5586,       623,
   75.5788,       619,
   75.5989,       629,
   75.6191,       655,
   75.6393,       616,
   75.6594,       605,
   75.6796,       610,
   75.6998,       621,
   75.7199,       599,
   75.7401,       606,
   75.7603,       642,
   75.7805,       584,
   75.8006,       623,
   75.8208,       651,
    75.841,       648,
   75.8611,       640,
   75.8813,       624,
   75.9015,       580,
   75.9216,       663,
   75.9418,       626,
    75.962,       637,
   75.9821,       630,
   76.0023,       591,
   76.0225,       619,
   76.0426,       621,
   76.0628,       651,
    76.083,       635,
   76.1032,       595,
   76.1233,       650,
   76.1435,       646,
   76.1637,       593,
   76.1838,       596,
    76.204,       622,
   76.2242,       650,
   76.2443,       660,
   76.2645,       648,
   76.2847,       664,
   76.3048,       613,
    76.325,       588,
   76.3452,       611,
   76.3653,       610,
   76.3855,       619,
   76.4057,       613,
   76.4258,       574,
    76.446,       596,
   76.4662,       561,
   76.4864,       598,
   76.5065,       584,
   76.5267,       662,
   76.5469,       633,
    76.567,       575,
   76.5872,       586,
   76.6074,       655,
   76.6275,       625,
   76.6477,       628,
   76.6679,       654,
    76.688,       579,
   76.7082,       616,
   76.7284,       615,
   76.7485,       550,
   76.7687,       596,
   76.7889,       599,
    76.809,       623,
   76.8292,       586,
   76.8494,       596,
   76.8696,       589,
   76.8897,       612,
   76.9099,       608,
   76.9301,       588,
   76.9502,       633,
   76.9704,       590,
   76.9906,       578,
   77.0107,       636,
   77.0309,       616,
   77.0511,       601,
   77.0712,       655,
   77.0914,       604,
   77.1116,       644,
   77.1317,       592,
   77.1519,       625,
   77.1721,       622,
   77.1923,       660,
   77.2124,       656,
   77.2326,       599,
   77.2528,       606,
   77.2729,       616,
   77.2931,       611,
   77.3133,       574,
   77.3334,       590,
   77.3536,       592,
   77.3738,       604,
   77.3939,       615,
   77.4141,       581,
   77.4343,       624,
   77.4544,       610,
   77.4746,       594,
   77.4948,       611,
   77.5149,       592,
   77.5351,       584,
   77.5553,       592,
   77.5755,       605,
   77.5956,       687,
   77.6158,       591,
    77.636,       620,
   77.6561,       592,
   77.6763,       618,
   77.6965,       604,
   77.7166,       594,
   77.7368,       592,
    77.757,       597,
   77.7771,       594,
   77.7973,       601,
   77.8175,       579,
   77.8376,       633,
   77.8578,       606,
    77.878,       622,
   77.8981,       608,
   77.9183,       594,
   77.9385,       638,
   77.9587,       628,
   77.9788,       589,
    77.999,       620,
