;RAW4.00
[RawHeader]
Date=11/26/2025
EstimatedTotalTime=426.6
FurtherDQLReading=0
HardwareIndicator=65519
MeasuredTotalTime=4.29643
MeasurementFlag=1
NumberOfMeasuredRanges=1
NumberOfRanges=1
Time=16:00:06

[VarInfo]
Type=USER
Flags=0
Value=Lab Manager

[VarInfo]
Type=SAMPLEID
Flags=0
Value=Commander Sample ID

[VarInfo]
Type=COMMENT
Flags=0
Value=

[VarInfo]
Type=UTF
Flags=0
Value=

[VarInfo]
Type=CREATOR
Flags=0
Value=V5Converter

[VarInfo]
Type=CREATOR_VERSION
Flags=0
Value=4.4.16.0

[HardwareConfiguration]
AbsorptionFactor=9999
ActivateAbsorber=0
Alpha1=1.5406
Alpha2=1.54439
AlphaAverage=1.54184
AlphaRatio=0.5
Analyzer=0
Anode=Cu
AntiScatteringSlit=9999
BeamOpticsFlags=0
Beta=1.39222
BetaRelativeIntensity=0
DeactivateAbsorber=0
DetectorSlit=9999
DivergenceSlit=9999
GoniometerControl=0
GoniometerDiameter=282
GoniometerModel=256
GoniometerStage=7
Monochromator=0
NearSampleSlit=9999
PrimarySollerSlit=9999
SampleChanger=0
SecondSollerSlit=9999
SynchronousAxis=0
ThinFilmAttachment=9999
WaveUnit=A

[RangeHeader]
ActuallyUsedLambda=1.54184
AdditionalDetectorMask=257
DataRecordLength=4
DelayTime=0
DisplayPlaneNumber=0
EstimatedScanTime=427
ExtraParametersMask=0
GeneratorCurrent=10
GeneratorVoltage=30
Increment=0.0201685
Increment3=0
NumberOfCompletedData=1885
NumberOfCounts=1
NumberOfDetectors=0
NumberOfDrives=3
NumberOfEncoderDrives=0
NumberOfMeasuredData=1885
NumberOfVaryingParameters=0
RangeStartTime=0
RotationSpeed=0
ScanMode=1
ScanType=Locked Coupled
SimulatedMeasConditions=0
SlitChangerIn=0
SmootingWidth=0
Start=40.0015
Steps=1885
SynchronousRotation=0
Time=33

[VarInfo]
Type=PSD_DISCRIM
Flags=0
Value=0.11;0.5

[VarInfo]
Type=OPTICS_V5
Flags=0
Value=H4sIAAAAAAAEAO1d63KjOhJ+Fda/zqmtBIPtXKaITzm2J+OaOHbFTnKmtrZcBORYZzC4AOey//d99hl2X2x1QViIS8C3JBN+TCaodWm6+2vUUkfS/nieW9IjcD3o2GcV5bBakYBtOCa0H84qS396oBxV/mhqF44NnTnwgdt25gvHBrbf0X1dQq1t78uzB88qM99ffJHlp6enw6faoeM+yGq1qsh/9i9HxgzM9QNoe75uG6AStjJfb1WRbqEH7y1wpc/BWWXFR0joAM9w4cInL/Bj4UHLsSW+3oXrLBc9NBZ6t3Pgojcb3P8FDH+o+7OzitwBj9AAMt+CrxUfl1Lblu55QRehTORzoM8XqLDt2L4ObeBy/coBc6yHluEvdYtxoR6o1ePT02O5h8TkLue4tzhrTW2EZGjqqBswQr3oFvyXjl+9OdUtD2hyGln7c259hcAyrwHqHhq4EDFpA/KbJ8lNjfKD1ToCFipvdm00JDA1OUbR6Btwou9Ab2HpL824AjQ5tXK8m+bF4OrHhPzodEft64TGrBVWDOsoPhpP1bBWhrxWvISy1r0hIUP+4r8skMLHrm78xG8sGODQhXPdfSHkZBMMakgD9GxISBvSeHkPOIFIQeOidilHx44baRI9r5mSRmyEDSxUYBJZ3blu/xy4JnCvAfYzAL0wsdX3b8s5NVnMwIfj6+8T9KPV/l7IxHm5Jhp5z0OvBh9BE+kGCS98DAk920dCZMIVSikeHA9SJulgmhwp1bAq2ZMXfZT4B2LSAxc+QFu3ogSlwl6OWi7Ssb/0moPwnSLFGmsYPPedJdIj0qJQrgWE0MJ5JCOdEXICmjFtjmnJUA7J0tRxpRHQLUBtYA3AytxYcejGiMm4JZa46kmmLG0LrhEWBa3xcus++8A2MZDfDYZpCWdMkQKtj5nwHfcltGVFk+OFGseMJxH2qHoYWND7cnJosmJN5ku1uCnh1+H65qyTKx3Y545jAR1NEG5s6BPpdiDSG56bXcI59IlYwiKvWdVk7knrgKm+tPxb3VoCboigVyQ96CPXTshnFewlKri/oQta5l9LD8GnYEuZYx67mbHTJoqe6ZblPK0cjVCOarZnwPgJzFUVVqC1ESPOHKsWvx33pNH5Zl7erhEyxkg2xVq1lr7TdoHug6HrLIDrvzAWEyiR9/eIRfdMhLKr5fweuE21rslCEdaQRS08UPF//xMyUSUc9B0TNG8Quqbos4xMnTwz90Y+PzEHluy7tuWt5HgP/ND5vNXOHBXjLvaN2aNbYuh5A79Evm3IJvErCL6JJ23LP418rD3OPSHRTOHDEjnla/gw85sIdabECnU0BoKwUKWYS+vrz5fAfvBnTbXRwKJhj2nOjrJISkNktZevObqMVm/q5DL4SnFwGS02cm5pFninPwKqkpa1mOmKYIUieVuWOJh2nCVqyWzxf//ehzWm2Nxw9uJBQ7dIeQJnTA/KYaNePXrNFtfo7ca2MPfItOjcf/WMZelYS+paugfVBtErK9H60Ibz5bx5oBwenx4fndaUWv3kSK0pjePu32vVE4S4oAZGIvklvWZQ4W0Rs4b0UpC0Rk/7QJiajTD10yOsXjvdJsRYdyXGNhLfFkDGuto1yh6Bqz+IoV6M/ulxppzUt4kz1l2Js43EtwWcsa52jLNz4OupIMPET46w2qmqqttD2Kq7EmEbiW9jhK262jHCrvGaRirECHVXGHuvCFutth02NsJWrKMSVWsKbh08xTrZCZK+OsbSG7gQ2D5ZHRSgJJK3tspG1g4H057tH9XfH6CibEVXr/OjKbkXhfRCBYDfqOeDOWLs0nmABl3VvJn0rm5bl73OpP2tN9TkFYkJfAye/WbPftQtiMQzg4uVjCJaIvW07+CFjI1lEf6uyTEWsnm67F2lsnIJbSARW0kbWtlk6OEgY+yhA20/e3B1k8GZLoaD0auqCHeKD6S58wgk35HmwJjpNrYKCTmTxd/SeKxl8/ienF2WXefzdFk9bOTm6N5Lz546UqiqhAVciZbr3FOQY3BWIVUkVBrdJr+ZtC6H31rRcrGRhEeyyEjkXXKxo0bYURPZUVPYUbPYUQuzEywL8PxEyoQBQloib5PW7UUWe0HrokySmCrg8D78PeybkkWGzrvjVjIvuH4+FiIbUQEDqBXeyxN46LJSkY3uZbffvRqnSMV2TCAFbaXVSDlkQmfBvNq4EkHsASVZZdetcW+QpTTSOp+8YlOLgL9pYnk4ToQicvl10J4MrpMZJONJkeZyfMe6Ed+xvgA2skTfcYU8TFacvPmcsQFLZ8dr7r82tXQiP3O7dSw/voYXlO4q5vl5u6WEjcypLxqFfRNqVSHyCL4FKaFHctihVBMCjFp1f7FErbF+MBEXRsEvZLo55TW19tJ1sT+LmlpQuitTm7f2YWpolHD6sQ1TaySFsh/E0uKy2LulDZ0nkgHOmxQp25WV3aUEnW+xcHMnRJr5lluqhymm+EkWW+4491hde7Ul3ssWbV9+7YtfJA0UTQyNGXBfyVbbPA8ud74bklUw60j9YgWfilQ/I4dzraYmBmuZ2QhiKJW9qxqLdLI3h6IxR/YytzAXT1vD42MIIXVJnC4nR8cylyaJ7OZRhxZeJcCPHu2eWH2ZQFkmUJYJlGUCZZlA+fE2xcsEyvezJV4mUP6aCCsTKN8TxsoEyl8VZ2UC5XvCWZlA+ashrEygfE8IKxMoywTKMoGyTKAsEyjLBMoygbJMoCwTKMsEyjKBskygLBMoywTKMoGyTKAsEyjLBMoygbJMoHzr+KNMoCwTKD9tAiXLkUS/iumT7KzT+Cmg4tm7GScqd+cL/4UkG4arGcVOT+72h4PRhP4scnoyGTg0xcTzk2U+BzLzcGMl7XBjde+HGw8WbefceR5MR45lATfhiGNKyDjkmKsg/WbotmTQQ8ElNJZEifQE7N/XgX9k+LhXSSBnuYaE6hunwkb7FPSZfOxxRGTIPPKL8PePe2KymphYK0bAR+scevtxXAin6Q2diJrmRGpv50S+wmdgEkNlcw/RmVjQz3IliCz1U2CAaRv4kdXICV5EJGb6ELHy5h6E61FQZYr/YA2o98gntQ/sOmq5XMfxeudlE7OmVzSsTJpYMhZe0hcRy1SR/jGf/zPDjH/DR/7fA2QfErQ9hAVgol98R9I5hWWaMq5mhBds4KeJUp0oaQYcIb5mwIVtN52ZmPP5qH/5US30lx930PRnYm4HLtvZktP8/WxBxzgL44DNsuvjPeVdZqh+7nWGuODWWWeI97KTtI5vABumgB1a+LnBszXslNBZz+i3gpzt3wSirjOzGenzhQXuZgBYY/QC/KUgIkkjH65UJ0ChmfamMj+F+lCxGJtFbxiJ1dIisfpGkRjhMR6HvT9h3thLD5hkeHHgLInKwm1g17oJl16CldWVYB+fXrg3mE494KdZfesZevz3Iay2B1ceYybnbh1ywVU1LSlVPTypn6qNRkNN8LvHjcOTRv24dqQqvK8VhNAM7mETbitc+w7DEUCRgJl9i2FYh7v9roNCXwNnMmzhLkORh4SYKLFGsfsMwz42ifVFRj70nYaF9FrM/4zwzYaj4jcbRuW787sNw+F2cbvhyRss3uHlOks3wMyxzMQtgMsX+xm8pBxzcfnj6s/ujy654bCjSsOZ7olX4OYEsRyOEwezQMpa3mDWKOO8X3k4Wj2jProvYAvX6KYzLmrzl7v28CTPUlxNiU9Yi8wL0ecUu0XdWrmWfniNJk2pxn6HJHazGl4xZ9PpjyfkXwFHw4ba6R6gstmscZebgP09bgIKCIswkLYN2N/zNmAmj6JSs3YC+59rJ1Cp53Ii1c+wFVhGSkUjpbRAqXF4dHrSUJRqPWmBqqEcHldP68dqfQeB0sontAHGieA9hcKI4+SmzLSadMAw70kjnLfkkW8dVkPLMIDnOS4E3hoRE+Mi7j2jlLwRUvyl1/ekrIcPHRqtqcpiLudicNWekB9FHA7lZ+eh0Ri4qHQnkdHp3mdFwxkkShPAfO0EGXBRYgTUqKlErdE1Wb0CGJXZGHSdNqGDKCsJ1TJnP6vqMuJUZpxuDuAUxgVFpsREEgUYMFu+rxszPNBZ5WDPRwluc5pzmitr4SQ+y+l5TBQhKMMCjfMcZLfIWj48ALPjYkzSv8ZE3eHvWs9sIu2S3oNHTCEVRwtgwGnwt6KsUpyC4BLvvcgEK46DYs5u+K03mpAfRZxdFKHbnGBVi0yvQisOP5lEYfRDEPwf22IqXU7pckqXI7qcECvsd+8VLsZPznhGTjB6jZVIzZz8ZA+dc9yig6ZEJvFifFQxXo8YAd9H0PIkfi6GHAXNPKxILbzB7vVR6AbplI5NtLGOuVT/5i2e1Rn4EFu+VFtBkewhB6uqmiyUa3yqI/WAkWUTj/6JxSqYYK6D6Pv/u9RXv2COAAA=

[PSD]
ActualTwoTheta=9999
FirstUsedChannel=0
FixedPSD=0
PSDOpening=4.99171
PSDType=5

[Drive]
DriveFlags=1
DriveName=2Theta
DriveNumber=2
DriveOffset=0
OffsetIndex=0
OscillationAmplitude=0
OscillationSpeed=0
StartPosition=40.0015

[Drive]
DriveFlags=1
DriveName=Theta
DriveNumber=1
DriveOffset=0
OffsetIndex=0
OscillationAmplitude=0
OscillationSpeed=0
StartPosition=20.0007

[Drive]
DriveFlags=1
DriveName=Phi
DriveNumber=3
DriveOffset=0
OffsetIndex=0
OscillationAmplitude=0
OscillationSpeed=0
StartPosition=0

[Data]
     Angle,       PSD,
   40.0015,       607,
   40.0217,       603,
   40.0418,       592,
    40.062,       590,
   40.0822,       638,
   40.1023,       556,
   40.1225,       601,
   40.1427,       643,
   40.1628,       598,
    40.183,       635,
   40.2032,       650,
   40.2233,       615,
   40.2435,       595,
   40.2637,       569,
   40.2838,       590,
    40.304,       649,
   40.3242,       663,
   40.3444,       633,
   40.3645,       633,
   40.3847,       605,
   40.4049,       624,
    40.425,       621,
   40.4452,       626,
   40.4654,       605,
   40.4855,       634,
   40.5057,       582,
   40.5259,       610,
    40.546,       598,
   40.5662,       656,
   40.5864,       606,
   40.6065,       609,
   40.6267,       601,
   40.6469,       604,
   40.6671,       592,
   40.6872,       607,
   40.7074,       623,
   40.7276,       590,
   40.7477,       628,
   40.7679,       574,
   40.7881,       611,
   40.8082,       581,
   40.8284,       604,
   40.8486,       643,
   40.8687,       559,
   40.8889,       624,
   40.9091,       600,
   40.9292,       608,
   40.9494,       595,
   40.9696,       593,
   40.9897,       582,
   41.0099,       613,
   41.0301,       577,
   41.0503,       610,
   41.0704,       579,
   41.0906,       637,
   41.1108,       574,
   41.1309,       603,
   41.1511,       612,
   41.1713,       621,
   41.1914,       593,
   41.2116,       644,
   41.2318,       595,
   41.2519,       628,
   41.2721,       641,
   41.2923,       656,
   41.3124,       608,
   41.3326,       639,
   41.3528,       615,
   41.3729,       617,
   41.3931,       608,
   41.4133,       637,
   41.4335,       644,
   41.4536,       598,
   41.4738,       616,
    41.494,       605,
   41.5141,       639,
   41.5343,       601,
   41.5545,       617,
   41.5746,       601,
   41.5948,       620,
    41.615,       590,
   41.6351,       636,
   41.6553,       631,
   41.6755,       630,
   41.6956,       604,
   41.7158,       607,
    41.736,       586,
   41.7562,       580,
   41.7763,       644,
   41.7965,       602,
   41.8167,       627,
   41.8368,       592,
    41.857,       599,
   41.8772,       648,
   41.8973,       644,
   41.9175,       653,
   41.9377,       680,
   41.9578,       682,
    41.978,       656,
   41.9982,       720,
   42.0183,       695,
   42.0385,       729,
   42.0587,       730,
   42.0788,       697,
    42.099,       743,
   42.1192,       726,
   42.1394,       769,
   42.1595,       699,
   42.1797,       635,
   42.1999,       721,
     42.22,       758,
   42.2402,       745,
   42.2604,       712,
   42.2805,       680,
   42.3007,       677,
   42.3209,       767,
    42.341,       751,
   42.3612,       778,
   42.3814,       729,
   42.4015,       741,
   42.4217,       729,
   42.4419,       765,
    42.462,       707,
   42.4822,       749,
   42.5024,       761,
   42.5226,       702,
   42.5427,       726,
   42.5629,       754,
   42.5831,       768,
   42.6032,       742,
   42.6234,       720,
   42.6436,       718,
   42.6637,       718,
   42.6839,       765,
   42.7041,       724,
   42.7242,       735,
   42.7444,       746,
   42.7646,       726,
   42.7847,       777,
   42.8049,       785,
   42.8251,       747,
   42.8453,       777,
   42.8654,       758,
   42.8856,       758,
   42.9058,       807,
   42.9259,       786,
   42.9461,       758,
   42.9663,       824,
   42.9864,       812,
   43.0066,       890,
   43.0268,       825,
   43.0469,       902,
   43.0671,       874,
   43.0873,       980,
   43.1074,      1030,
   43.1276,      1060,
   43.1478,      1093,
   43.1679,      1142,
   43.1881,      1130,
   43.2083,      1227,
   43.2285,      1265,
   43.2486,      1303,
   43.2688,      1490,
    43.289,      1613,
   43.3091,      1798,
   43.3293,      1986,
   43.3495,      1989,
   43.3696,      2226,
   43.3898,      2587,
     43.41,      3554,
   43.4301,      5698,
   43.4503,     11267,
   43.4705,     24890,
   43.4906,     44346,
   43.5108,     49692,
    43.531,     34133,
   43.5511,     17829,
   43.5713,     13641,
   43.5915,     19214,
   43.6117,     26127,
   43.6318,     23699,
    43.652,     13939,
   43.6722,      6687,
   43.6923,      3682,
   43.7125,      2692,
   43.7327,      2103,
   43.7528,      1933,
    43.773,      1751,
   43.7932,      1616,
   43.8133,      1502,
   43.8335,      1335,
   43.8537,      1215,
   43.8738,      1172,
    43.894,      1075,
   43.9142,      1029,
   43.9344,       986,
   43.9545,       940,
   43.9747,       893,
   43.9949,       863,
    44.015,       859,
   44.0352,       842,
   44.0554,       813,
   44.0755,       809,
   44.0957,       789,
   44.1159,       793,
    44.136,       830,
   44.1562,       759,
   44.1764,       770,
   44.1965,       750,
   44.2167,       787,
   44.2369,       767,
    44.257,       757,
   44.2772,       742,
   44.2974,       768,
   44.3176,       760,
   44.3377,       758,
   44.3579,       705,
   44.3781,       679,
   44.3982,       725,
   44.4184,       717,
   44.4386,       719,
   44.4587,       726,
   44.4789,       745,
   44.4991,       680,
   44.5192,       713,
   44.5394,       671,
   44.5596,       714,
   44.5797,       686,
   44.5999,       734,
   44.6201,       695,
   44.6402,       680,
   44.6604,       711,
   44.6806,       685,
   44.7008,       712,
   44.7209,       716,
   44.7411,       725,
   44.7613,       697,
   44.7814,       708,
   44.8016,       698,
   44.8218,       708,
   44.8419,       719,
   44.8621,       669,
   44.8823,       715,
   44.9024,       678,
   44.9226,       693,
   44.9428,       667,
   44.9629,       697,
   44.9831,       689,
   45.0033,       642,
   45.0235,       652,
   45.0436,       686,
   45.0638,       716,
    45.084,       685,
   45.1041,       684,
   45.1243,       726,
   45.1445,       712,
   45.1646,       723,
   45.1848,       681,
    45.205,       710,
   45.2251,       681,
   45.2453,       683,
   45.2655,       669,
   45.2856,       665,
   45.3058,       732,
    45.326,       644,
   45.3461,       683,
   45.3663,       712,
   45.3865,       718,
   45.4067,       706,
   45.4268,       690,
    45.447,       740,
   45.4672,       777,
   45.4873,       690,
   45.5075,       666,
   45.5277,       693,
   45.5478,       684,
    45.568,       712,
   45.5882,       701,
   45.6083,       706,
   45.6285,       714,
   45.6487,       696,
   45.6688,       652,
    45.689,       714,
   45.7092,       669,
   45.7294,       673,
   45.7495,       676,
   45.7697,       647,
   45.7899,       678,
     45.81,       667,
   45.8302,       688,
   45.8504,       626,
   45.8705,       674,
   45.8907,       742,
   45.9109,       647,
    45.931,       644,
   45.9512,       706,
   45.9714,       696,
   45.9915,       629,
   46.0117,       665,
   46.0319,       654,
    46.052,       714,
   46.0722,       647,
   46.0924,       657,
   46.1126,       668,
   46.1327,       648,
   46.1529,       669,
   46.1731,       669,
   46.1932,       637,
   46.2134,       670,
   46.2336,       657,
   46.2537,       650,
   46.2739,       691,
   46.2941,       653,
   46.3142,       641,
   46.3344,       716,
   46.3546,       694,
   46.3747,       696,
   46.3949,       629,
   46.4151,       622,
   46.4352,       652,
   46.4554,       644,
   46.4756,       659,
   46.4958,       715,
   46.5159,       711,
   46.5361,       675,
   46.5563,       652,
   46.5764,       655,
   46.5966,       605,
   46.6168,       650,
   46.6369,       677,
   46.6571,       638,
   46.6773,       652,
   46.6974,       644,
   46.7176,       645,
   46.7378,       671,
   46.7579,       637,
   46.7781,       663,
   46.7983,       658,
   46.8185,       691,
   46.8386,       682,
   46.8588,       625,
    46.879,       663,
   46.8991,       680,
   46.9193,       657,
   46.9395,       643,
   46.9596,       659,
   46.9798,       666,
        47,       691,
   47.0201,       653,
   47.0403,       610,
   47.0605,       691,
   47.0806,       633,
   47.1008,       648,
    47.121,       677,
   47.1411,       672,
   47.1613,       645,
   47.1815,       655,
   47.2017,       667,
   47.2218,       643,
    47.242,       642,
   47.2622,       628,
   47.2823,       584,
   47.3025,       651,
   47.3227,       619,
   47.3428,       685,
    47.363,       611,
   47.3832,       665,
   47.4033,       687,
   47.4235,       677,
   47.4437,       656,
   47.4638,       633,
    47.484,       595,
   47.5042,       650,
   47.5243,       661,
   47.5445,       632,
   47.5647,       686,
   47.5849,       614,
    47.605,       649,
   47.6252,       675,
   47.6454,       651,
   47.6655,       665,
   47.6857,       642,
   47.7059,       637,
    47.726,       620,
   47.7462,       632,
   47.7664,       658,
   47.7865,       647,
   47.8067,       630,
   47.8269,       637,
    47.847,       653,
   47.8672,       657,
   47.8874,       675,
   47.9076,       612,
   47.9277,       631,
   47.9479,       668,
   47.9681,       648,
   47.9882,       650,
   48.0084,       673,
   48.0286,       663,
   48.0487,       637,
   48.0689,       598,
   48.0891,       604,
   48.1092,       635,
   48.1294,       632,
   48.1496,       650,
   48.1697,       629,
   48.1899,       607,
   48.2101,       644,
   48.2302,       658,
   48.2504,       666,
   48.2706,       650,
   48.2908,       651,
   48.3109,       595,
   48.3311,       640,
   48.3513,       693,
   48.3714,       669,
   48.3916,       622,
   48.4118,       622,
   48.4319,       649,
   48.4521,       675,
   48.4723,       674,
   48.4924,       610,
   48.5126,       656,
   48.5328,       625,
   48.5529,       677,
   48.5731,       594,
   48.5933,       646,
   48.6134,       628,
   48.6336,       644,
   48.6538,       638,
    48.674,       695,
   48.6941,       643,
   48.7143,       664,
   48.7345,       637,
   48.7546,       655,
   48.7748,       663,
    48.795,       646,
   48.8151,       646,
   48.8353,       673,
   48.8555,       672,
   48.8756,       697,
   48.8958,       651,
    48.916,       634,
   48.9361,       660,
   48.9563,       690,
   48.9765,       674,
   48.9967,       645,
   49.0168,       665,
    49.037,       643,
   49.0572,       643,
   49.0773,       673,
   49.0975,       673,
   49.1177,       691,
   49.1378,       647,
    49.158,       667,
   49.1782,       643,
   49.1983,       694,
   49.2185,       646,
   49.2387,       666,
   49.2588,       668,
    49.279,       649,
   49.2992,       678,
   49.3193,       632,
   49.3395,       663,
   49.3597,       663,
   49.3799,       678,
      49.4,       669,
   49.4202,       663,
   49.4404,       616,
   49.4605,       674,
   49.4807,       644,
   49.5009,       690,
    49.521,       667,
   49.5412,       682,
   49.5614,       666,
   49.5815,       645,
   49.6017,       727,
   49.6219,       682,
    49.642,       658,
   49.6622,       668,
   49.6824,       676,
   49.7025,       705,
   49.7227,       692,
   49.7429,       633,
   49.7631,       709,
   49.7832,       664,
   49.8034,       672,
   49.8236,       682,
   49.8437,       666,
   49.8639,       666,
   49.8841,       701,
   49.9042,       674,
   49.9244,       677,
   49.9446,       663,
   49.9647,       708,
   49.9849,       636,
   50.0051,       677,
   50.0252,       675,
   50.0454,       700,
   50.0656,       726,
   50.0858,       689,
   50.1059,       737,
   50.1261,       671,
   50.1463,       759,
   50.1664,       715,
   50.1866,       785,
   50.2068,       759,
   50.2269,       751,
   50.2471,       798,
   50.2673,       794,
   50.2874,       787,
   50.3076,       849,
   50.3278,       924,
   50.3479,       927,
   50.3681,       954,
   50.3883,       971,
   50.4084,      1031,
   50.4286,      1016,
   50.4488,      1171,
    50.469,      1170,
   50.4891,      1292,
   50.5093,      1465,
   50.5295,      1924,
   50.5496,      2711,
   50.5698,      4044,
     50.59,      6548,
   50.6101,      9867,
   50.6303,     11878,
   50.6505,     10812,
   50.6706,      7569,
   50.6908,      5352,
    50.711,      4516,
   50.7311,      5131,
   50.7513,      6210,
   50.7715,      6469,
   50.7917,      5432,
   50.8118,      3793,
    50.832,      2441,
   50.8522,      1811,
   50.8723,      1413,
   50.8925,      1223,
   50.9127,      1156,
   50.9328,      1048,
    50.953,       966,
   50.9732,       899,
   50.9933,       868,
   51.0135,       803,
   51.0337,       800,
   51.0538,       818,
    51.074,       752,
   51.0942,       785,
   51.1143,       767,
   51.1345,       745,
   51.1547,       710,
   51.1749,       679,
    51.195,       667,
   51.2152,       698,
   51.2354,       710,
   51.2555,       691,
   51.2757,       697,
   51.2959,       696,
    51.316,       687,
   51.3362,       660,
   51.3564,       683,
   51.3765,       665,
   51.3967,       651,
   51.4169,       688,
    51.437,       680,
   51.4572,       644,
   51.4774,       686,
   51.4975,       664,
   51.5177,       614,
   51.5379,       688,
   51.5581,       671,
   51.5782,       697,
   51.5984,       670,
   51.6186,       625,
   51.6387,       632,
   51.6589,       653,
   51.6791,       682,
   51.6992,       658,
   51.7194,       614,
   51.7396,       630,
   51.7597,       599,
   51.7799,       660,
   51.8001,       659,
   51.8202,       629,
   51.8404,       598,
   51.8606,       656,
   51.8808,       611,
   51.9009,       672,
   51.9211,       647,
   51.9413,       620,
   51.9614,       617,
   51.9816,       646,
   52.0018,       655,
   52.0219,       661,
   52.0421,       640,
   52.0623,       650,
   52.0824,       637,
   52.1026,       688,
   52.1228,       630,
   52.1429,       624,
   52.1631,       617,
   52.1833,       650,
   52.2034,       665,
   52.2236,       606,
   52.2438,       635,
    52.264,       651,
   52.2841,       642,
   52.3043,       590,
   52.3245,       636,
   52.3446,       635,
   52.3648,       651,
    52.385,       616,
   52.4051,       637,
   52.4253,       691,
   52.4455,       655,
   52.4656,       669,
   52.4858,       632,
    52.506,       676,
   52.5261,       608,
   52.5463,       660,
   52.5665,       631,
   52.5866,       672,
   52.6068,       630,
    52.627,       672,
   52.6472,       629,
   52.6673,       622,
   52.6875,       641,
   52.7077,       667,
   52.7278,       588,
    52.748,       653,
   52.7682,       615,
   52.7883,       633,
   52.8085,       639,
   52.8287,       603,
   52.8488,       573,
    52.869,       624,
   52.8892,       629,
   52.9093,       639,
   52.9295,       629,
   52.9497,       642,
   52.9699,       612,
     52.99,       581,
   53.0102,       626,
   53.0304,       589,
   53.0505,       618,
   53.0707,       644,
   53.0909,       665,
    53.111,       628,
   53.1312,       652,
   53.1514,       601,
   53.1715,       676,
   53.1917,       598,
   53.2119,       607,
    53.232,       643,
   53.2522,       647,
   53.2724,       627,
   53.2925,       626,
   53.3127,       614,
   53.3329,       653,
   53.3531,       616,
   53.3732,       639,
   53.3934,       650,
   53.4136,       607,
   53.4337,       670,
   53.4539,       604,
   53.4741,       650,
   53.4942,       586,
   53.5144,       661,
   53.5346,       599,
   53.5547,       628,
   53.5749,       596,
   53.5951,       668,
   53.6152,       617,
   53.6354,       609,
   53.6556,       647,
   53.6757,       622,
   53.6959,       567,
   53.7161,       624,
   53.7363,       610,
   53.7564,       674,
   53.7766,       626,
   53.7968,       614,
   53.8169,       632,
   53.8371,       641,
   53.8573,       616,
   53.8774,       642,
   53.8976,       619,
   53.9178,       631,
   53.9379,       613,
   53.9581,       652,
   53.9783,       615,
   53.9984,       592,
   54.0186,       648,
   54.0388,       623,
    54.059,       621,
   54.0791,       629,
   54.0993,       625,
   54.1195,       614,
   54.1396,       613,
   54.1598,       621,
     54.18,       643,
   54.2001,       648,
   54.2203,       656,
   54.2405,       632,
   54.2606,       651,
   54.2808,       572,
    54.301,       595,
   54.3211,       622,
   54.3413,       576,
   54.3615,       614,
   54.3816,       611,
   54.4018,       633,
    54.422,       635,
   54.4422,       643,
   54.4623,       610,
   54.4825,       642,
   54.5027,       685,
   54.5228,       593,
    54.543,       611,
   54.5632,       631,
   54.5833,       604,
   54.6035,       674,
   54.6237,       583,
   54.6438,       642,
    54.664,       602,
   54.6842,       577,
   54.7043,       621,
   54.7245,       627,
   54.7447,       608,
   54.7648,       594,
    54.785,       555,
   54.8052,       599,
   54.8254,       651,
   54.8455,       595,
   54.8657,       588,
   54.8859,       616,
    54.906,       665,
   54.9262,       575,
   54.9464,       593,
   54.9665,       593,
   54.9867,       602,
   55.0069,       598,
    55.027,       584,
   55.0472,       602,
   55.0674,       601,
   55.0875,       622,
   55.1077,       598,
   55.1279,       594,
   55.1481,       574,
   55.1682,       603,
   55.1884,       563,
   55.2086,       602,
   55.2287,       587,
   55.2489,       613,
   55.2691,       600,
   55.2892,       585,
   55.3094,       623,
   55.3296,       584,
   55.3497,       599,
   55.3699,       596,
   55.3901,       593,
   55.4102,       620,
   55.4304,       580,
   55.4506,       626,
   55.4707,       619,
   55.4909,       623,
   55.5111,       582,
   55.5313,       585,
   55.5514,       631,
   55.5716,       639,
   55.5918,       624,
   55.6119,       590,
   55.6321,       602,
   55.6523,       569,
   55.6724,       617,
   55.6926,       593,
   55.7128,       643,
   55.7329,       576,
   55.7531,       605,
   55.7733,       578,
   55.7934,       606,
   55.8136,       603,
   55.8338,       628,
    55.854,       605,
   55.8741,       599,
   55.8943,       621,
   55.9145,       596,
   55.9346,       579,
   55.9548,       602,
    55.975,       628,
   55.9951,       616,
   56.0153,       568,
   56.0355,       637,
   56.0556,       613,
   56.0758,       586,
    56.096,       557,
   56.1161,       642,
   56.1363,       621,
   56.1565,       624,
   56.1766,       590,
   56.1968,       585,
    56.217,       633,
   56.2372,       575,
   56.2573,       580,
   56.2775,       613,
   56.2977,       596,
   56.3178,       602,
    56.338,       626,
   56.3582,       617,
   56.3783,       595,
   56.3985,       601,
   56.4187,       556,
   56.4388,       596,
    56.459,       596,
   56.4792,       583,
   56.4993,       568,
   56.5195,       600,
   56.5397,       607,
   56.5598,       608,
     56.58,       621,
   56.6002,       633,
   56.6204,       601,
   56.6405,       596,
   56.6607,       593,
   56.6809,       645,
    56.701,       635,
   56.7212,       593,
   56.7414,       584,
   56.7615,       594,
   56.7817,       624,
   56.8019,       655,
    56.822,       592,
   56.8422,       622,
   56.8624,       619,
   56.8825,       574,
   56.9027,       559,
   56.9229,       618,
   56.9431,       625,
   56.9632,       631,
   56.9834,       571,
   57.0036,       646,
   57.0237,       598,
   57.0439,       596,
   57.0641,       608,
   57.0842,       551,
   57.1044,       597,
   57.1246,       613,
   57.1447,       571,
   57.1649,       616,
   57.1851,       595,
   57.2052,       608,
   57.2254,       580,
   57.2456,       624,
   57.2657,       615,
   57.2859,       646,
   57.3061,       550,
   57.3263,       590,
   57.3464,       615,
   57.3666,       617,
   57.3868,       604,
   57.4069,       595,
   57.4271,       563,
   57.4473,       599,
   57.4674,       570,
   57.4876,       580,
   57.5078,       605,
   57.5279,       578,
   57.5481,       609,
   57.5683,       611,
   57.5884,       560,
   57.6086,       605,
   57.6288,       656,
   57.6489,       591,
   57.6691,       571,
   57.6893,       628,
   57.7095,       621,
   57.7296,       617,
   57.7498,       607,
     57.77,       606,
   57.7901,       569,
   57.8103,       615,
   57.8305,       583,
   57.8506,       588,
   57.8708,       603,
    57.891,       574,
   57.9111,       603,
   57.9313,       578,
   57.9515,       585,
   57.9716,       583,
   57.9918,       586,
    58.012,       620,
   58.0322,       601,
   58.0523,       590,
   58.0725,       608,
   58.0927,       591,
   58.1128,       612,
    58.133,       573,
   58.1532,       589,
   58.1733,       563,
   58.1935,       587,
   58.2137,       554,
   58.2338,       595,
    58.254,       577,
   58.2742,       563,
   58.2943,       600,
   58.3145,       565,
   58.3347,       613,
   58.3548,       571,
    58.375,       575,
   58.3952,       626,
   58.4154,       622,
   58.4355,       593,
   58.4557,       607,
   58.4759,       598,
    58.496,       596,
   58.5162,       606,
   58.5364,       610,
   58.5565,       561,
   58.5767,       581,
   58.5969,       604,
    58.617,       623,
   58.6372,       612,
   58.6574,       631,
   58.6775,       627,
   58.6977,       643,
   58.7179,       602,
    58.738,       592,
   58.7582,       602,
   58.7784,       605,
   58.7986,       582,
   58.8187,       577,
   58.8389,       568,
   58.8591,       598,
   58.8792,       616,
   58.8994,       637,
   58.9196,       611,
   58.9397,       604,
   58.9599,       626,
   58.9801,       599,
   59.0002,       544,
   59.0204,       580,
   59.0406,       622,
   59.0607,       585,
   59.0809,       577,
   59.1011,       601,
   59.1213,       584,
   59.1414,       612,
   59.1616,       548,
   59.1818,       574,
   59.2019,       622,
   59.2221,       585,
   59.2423,       588,
   59.2624,       563,
   59.2826,       564,
   59.3028,       606,
   59.3229,       614,
   59.3431,       616,
   59.3633,       564,
   59.3834,       605,
   59.4036,       593,
   59.4238,       594,
   59.4439,       563,
   59.4641,       609,
   59.4843,       586,
   59.5045,       608,
   59.5246,       653,
   59.5448,       587,
    59.565,       591,
   59.5851,       554,
   59.6053,       611,
   59.6255,       640,
   59.6456,       570,
   59.6658,       594,
    59.686,       569,
   59.7061,       614,
   59.7263,       597,
   59.7465,       634,
   59.7666,       567,
   59.7868,       593,
    59.807,       656,
   59.8271,       645,
   59.8473,       606,
   59.8675,       588,
   59.8877,       546,
   59.9078,       605,
    59.928,       590,
   59.9482,       597,
   59.9683,       596,
   59.9885,       604,
   60.0087,       592,
   60.0288,       623,
    60.049,       581,
   60.0692,       582,
   60.0893,       603,
   60.1095,       593,
   60.1297,       603,
   60.1498,       607,
     60.17,       619,
   60.1902,       564,
   60.2104,       594,
   60.2305,       617,
   60.2507,       623,
   60.2709,       607,
    60.291,       631,
   60.3112,       610,
   60.3314,       584,
   60.3515,       577,
   60.3717,       591,
   60.3919,       597,
    60.412,       589,
   60.4322,       625,
   60.4524,       625,
   60.4725,       603,
   60.4927,       571,
   60.5129,       596,
    60.533,       580,
   60.5532,       591,
   60.5734,       605,
   60.5936,       594,
   60.6137,       573,
   60.6339,       565,
   60.6541,       593,
   60.6742,       610,
   60.6944,       572,
   60.7146,       598,
   60.7347,       590,
   60.7549,       583,
   60.7751,       555,
   60.7952,       521,
   60.8154,       601,
   60.8356,       609,
   60.8557,       587,
   60.8759,       599,
   60.8961,       586,
   60.9163,       548,
   60.9364,       561,
   60.9566,       612,
   60.9768,       615,
   60.9969,       596,
   61.0171,       582,
   61.0373,       591,
   61.0574,       624,
   61.0776,       611,
   61.0978,       561,
   61.1179,       585,
   61.1381,       597,
   61.1583,       630,
   61.1784,       611,
   61.1986,       564,
   61.2188,       593,
   61.2389,       588,
   61.2591,       601,
   61.2793,       576,
   61.2995,       622,
   61.3196,       598,
   61.3398,       576,
     61.36,       611,
   61.3801,       586,
   61.4003,       621,
   61.4205,       595,
   61.4406,       601,
   61.4608,       609,
    61.481,       568,
   61.5011,       628,
   61.5213,       598,
   61.5415,       567,
   61.5616,       568,
   61.5818,       569,
    61.602,       584,
   61.6221,       581,
   61.6423,       614,
   61.6625,       579,
   61.6827,       586,
   61.7028,       572,
    61.723,       612,
   61.7432,       601,
   61.7633,       587,
   61.7835,       568,
   61.8037,       553,
   61.8238,       583,
    61.844,       625,
   61.8642,       591,
   61.8843,       564,
   61.9045,       604,
   61.9247,       586,
   61.9448,       585,
    61.965,       588,
   61.9852,       618,
   62.0054,       608,
   62.0255,       583,
   62.0457,       576,
   62.0659,       587,
    62.086,       630,
   62.1062,       595,
   62.1264,       564,
   62.1465,       588,
   62.1667,       596,
   62.1869,       574,
    62.207,       624,
   62.2272,       632,
   62.2474,       546,
   62.2675,       577,
   62.2877,       600,
   62.3079,       587,
    62.328,       573,
   62.3482,       599,
   62.3684,       549,
   62.3886,       553,
   62.4087,       592,
   62.4289,       586,
   62.4491,       578,
   62.4692,       586,
   62.4894,       563,
   62.5096,       608,
   62.5297,       617,
   62.5499,       566,
   62.5701,       609,
   62.5902,       588,
   62.6104,       543,
   62.6306,       596,
   62.6507,       579,
   62.6709,       559,
   62.6911,       602,
   62.7112,       575,
   62.7314,       638,
   62.7516,       556,
   62.7718,       596,
   62.7919,       596,
   62.8121,       600,
   62.8323,       600,
   62.8524,       622,
   62.8726,       580,
   62.8928,       606,
   62.9129,       586,
   62.9331,       621,
   62.9533,       565,
   62.9734,       567,
   62.9936,       635,
   63.0138,       623,
   63.0339,       590,
   63.0541,       576,
   63.0743,       564,
   63.0945,       546,
   63.1146,       559,
   63.1348,       563,
    63.155,       586,
   63.1751,       580,
   63.1953,       593,
   63.2155,       575,
   63.2356,       556,
   63.2558,       648,
    63.276,       587,
   63.2961,       614,
   63.3163,       591,
   63.3365,       565,
   63.3566,       594,
   63.3768,       589,
    63.397,       575,
   63.4171,       581,
   63.4373,       579,
   63.4575,       581,
   63.4777,       595,
   63.4978,       587,
    63.518,       563,
   63.5382,       594,
   63.5583,       595,
   63.5785,       607,
   63.5987,       553,
   63.6188,       568,
    63.639,       588,
   63.6592,       564,
   63.6793,       616,
   63.6995,       585,
   63.7197,       565,
   63.7398,       605,
     63.76,       610,
   63.7802,       586,
   63.8003,       583,
   63.8205,       569,
   63.8407,       585,
   63.8609,       591,
    63.881,       564,
   63.9012,       588,
   63.9214,       606,
   63.9415,       624,
   63.9617,       594,
   63.9819,       561,
    64.002,       577,
   64.0222,       612,
   64.0424,       631,
   64.0625,       609,
   64.0827,       573,
   64.1029,       575,
    64.123,       560,
   64.1432,       594,
   64.1634,       568,
   64.1836,       544,
   64.2037,       561,
   64.2239,       532,
   64.2441,       568,
   64.2642,       583,
   64.2844,       589,
   64.3046,       548,
   64.3247,       560,
   64.3449,       593,
   64.3651,       633,
   64.3852,       640,
   64.4054,       626,
   64.4256,       602,
   64.4457,       568,
   64.4659,       561,
   64.4861,       569,
   64.5062,       578,
   64.5264,       609,
   64.5466,       588,
   64.5668,       596,
   64.5869,       605,
   64.6071,       586,
   64.6273,       519,
   64.6474,       604,
   64.6676,       591,
   64.6878,       620,
   64.7079,       581,
   64.7281,       572,
   64.7483,       589,
   64.7684,       596,
   64.7886,       571,
   64.8088,       582,
   64.8289,       589,
   64.8491,       563,
   64.8693,       574,
   64.8894,       572,
   64.9096,       595,
   64.9298,       549,
     64.95,       602,
   64.9701,       625,
   64.9903,       609,
   65.0105,       594,
   65.0306,       601,
   65.0508,       551,
    65.071,       593,
   65.0911,       589,
   65.1113,       557,
   65.1315,       631,
   65.1516,       562,
   65.1718,       590,
    65.192,       541,
   65.2121,       570,
   65.2323,       610,
   65.2525,       578,
   65.2727,       551,
   65.2928,       587,
    65.313,       588,
   65.3332,       608,
   65.3533,       592,
   65.3735,       554,
   65.3937,       565,
   65.4138,       620,
    65.434,       608,
   65.4542,       603,
   65.4743,       572,
   65.4945,       586,
   65.5147,       596,
   65.5348,       559,
    65.555,       600,
   65.5752,       546,
   65.5953,       576,
   65.6155,       620,
   65.6357,       584,
   65.6559,       604,
    65.676,       614,
   65.6962,       593,
   65.7164,       605,
   65.7365,       587,
   65.7567,       565,
   65.7769,       641,
    65.797,       574,
   65.8172,       626,
   65.8374,       570,
   65.8575,       567,
   65.8777,       553,
   65.8979,       570,
    65.918,       577,
   65.9382,       602,
   65.9584,       587,
   65.9786,       606,
   65.9987,       603,
   66.0189,       615,
   66.0391,       602,
   66.0592,       613,
   66.0794,       577,
   66.0996,       571,
   66.1197,       615,
   66.1399,       628,
   66.1601,       560,
   66.1802,       616,
   66.2004,       571,
   66.2206,       610,
   66.2407,       594,
   66.2609,       592,
   66.2811,       585,
   66.3012,       596,
   66.3214,       605,
   66.3416,       581,
   66.3618,       633,
   66.3819,       558,
   66.4021,       595,
   66.4223,       617,
   66.4424,       596,
   66.4626,       609,
   66.4828,       594,
   66.5029,       620,
   66.5231,       614,
   66.5433,       598,
   66.5634,       610,
   66.5836,       576,
   66.6038,       593,
   66.6239,       600,
   66.6441,       603,
   66.6643,       577,
   66.6844,       627,
   66.7046,       588,
   66.7248,       576,
    66.745,       578,
   66.7651,       604,
   66.7853,       564,
   66.8055,       617,
   66.8256,       609,
   66.8458,       612,
    66.866,       566,
   66.8861,       577,
   66.9063,       565,
   66.9265,       571,
   66.9466,       597,
   66.9668,       591,
    66.987,       578,
   67.0071,       606,
   67.0273,       599,
   67.0475,       591,
   67.0677,       644,
   67.0878,       601,
    67.108,       575,
   67.1282,       560,
   67.1483,       584,
   67.1685,       593,
   67.1887,       566,
   67.2088,       568,
    67.229,       599,
   67.2492,       623,
   67.2693,       572,
   67.2895,       584,
   67.3097,       581,
   67.3298,       527,
     67.35,       620,
   67.3702,       619,
   67.3903,       587,
   67.4105,       564,
   67.4307,       616,
   67.4509,       597,
    67.471,       561,
   67.4912,       571,
   67.5114,       566,
   67.5315,       545,
   67.5517,       595,
   67.5719,       561,
    67.592,       598,
   67.6122,       596,
   67.6324,       591,
   67.6525,       585,
   67.6727,       546,
   67.6929,       573,
    67.713,       576,
   67.7332,       560,
   67.7534,       595,
   67.7735,       563,
   67.7937,       583,
   67.8139,       608,
   67.8341,       552,
   67.8542,       545,
   67.8744,       589,
   67.8946,       578,
   67.9147,       619,
   67.9349,       571,
   67.9551,       589,
   67.9752,       598,
   67.9954,       627,
   68.0156,       575,
   68.0357,       566,
   68.0559,       602,
   68.0761,       574,
   68.0962,       564,
   68.1164,       587,
   68.1366,       610,
   68.1568,       553,
   68.1769,       525,
   68.1971,       597,
   68.2173,       586,
   68.2374,       625,
   68.2576,       608,
   68.2778,       585,
   68.2979,       578,
   68.3181,       582,
   68.3383,       595,
   68.3584,       520,
   68.3786,       553,
   68.3988,       591,
   68.4189,       550,
   68.4391,       594,
   68.4593,       572,
   68.4794,       574,
   68.4996,       579,
   68.5198,       574,
     68.54,       589,
   68.5601,       587,
   68.5803,       611,
   68.6005,       601,
   68.6206,       583,
   68.6408,       574,
    68.661,       569,
   68.6811,       612,
   68.7013,       556,
   68.7215,       591,
   68.7416,       561,
   68.7618,       596,
    68.782,       610,
   68.8021,       551,
   68.8223,       584,
   68.8425,       608,
   68.8626,       608,
   68.8828,       544,
    68.903,       586,
   68.9232,       615,
   68.9433,       541,
   68.9635,       560,
   68.9837,       598,
   69.0038,       569,
    69.024,       567,
   69.0442,       599,
   69.0643,       570,
   69.0845,       567,
   69.1047,       576,
   69.1248,       593,
    69.145,       592,
   69.1652,       582,
   69.1853,       581,
   69.2055,       602,
   69.2257,       576,
   69.2459,       574,
    69.266,       575,
   69.2862,       600,
   69.3064,       634,
   69.3265,       610,
   69.3467,       607,
   69.3669,       573,
    69.387,       610,
   69.4072,       575,
   69.4274,       607,
   69.4475,       582,
   69.4677,       553,
   69.4879,       618,
    69.508,       586,
   69.5282,       592,
   69.5484,       583,
   69.5685,       580,
   69.5887,       561,
   69.6089,       599,
   69.6291,       579,
   69.6492,       589,
   69.6694,       576,
   69.6896,       576,
   69.7097,       561,
   69.7299,       588,
   69.7501,       576,
   69.7702,       569,
   69.7904,       589,
   69.8106,       573,
   69.8307,       549,
   69.8509,       577,
   69.8711,       599,
   69.8912,       587,
   69.9114,       573,
   69.9316,       579,
   69.9517,       577,
   69.9719,       631,
   69.9921,       603,
   70.0123,       586,
   70.0324,       575,
   70.0526,       587,
   70.0728,       563,
   70.0929,       595,
   70.1131,       587,
   70.1333,       581,
   70.1534,       611,
   70.1736,       580,
   70.1938,       643,
   70.2139,       564,
   70.2341,       545,
   70.2543,       564,
   70.2744,       594,
   70.2946,       624,
   70.3148,       591,
    70.335,       573,
   70.3551,       557,
   70.3753,       601,
   70.3955,       590,
   70.4156,       579,
   70.4358,       582,
    70.456,       627,
   70.4761,       577,
   70.4963,       588,
   70.5165,       595,
   70.5366,       622,
   70.5568,       561,
    70.577,       600,
   70.5971,       620,
   70.6173,       554,
   70.6375,       624,
   70.6576,       613,
   70.6778,       558,
    70.698,       567,
   70.7182,       622,
   70.7383,       571,
   70.7585,       549,
   70.7787,       581,
   70.7988,       603,
    70.819,       557,
   70.8392,       654,
   70.8593,       639,
   70.8795,       608,
   70.8997,       573,
   70.9198,       588,
     70.94,       568,
   70.9602,       594,
   70.9803,       582,
   71.0005,       632,
   71.0207,       578,
   71.0409,       538,
    71.061,       520,
   71.0812,       592,
   71.1014,       575,
   71.1215,       575,
   71.1417,       581,
   71.1619,       580,
    71.182,       602,
   71.2022,       630,
   71.2224,       604,
   71.2425,       603,
   71.2627,       563,
   71.2829,       587,
    71.303,       584,
   71.3232,       594,
   71.3434,       538,
   71.3635,       592,
   71.3837,       619,
   71.4039,       617,
   71.4241,       605,
   71.4442,       553,
   71.4644,       554,
   71.4846,       584,
   71.5047,       554,
   71.5249,       641,
   71.5451,       560,
   71.5652,       616,
   71.5854,       602,
   71.6056,       577,
   71.6257,       581,
   71.6459,       611,
   71.6661,       582,
   71.6862,       623,
   71.7064,       649,
   71.7266,       599,
   71.7467,       598,
   71.7669,       631,
   71.7871,       575,
   71.8073,       620,
   71.8274,       612,
   71.8476,       602,
   71.8678,       645,
   71.8879,       611,
   71.9081,       610,
   71.9283,       598,
   71.9484,       605,
   71.9686,       591,
   71.9888,       594,
   72.0089,       589,
   72.0291,       566,
   72.0493,       572,
   72.0694,       602,
   72.0896,       648,
   72.1098,       605,
     72.13,       645,
   72.1501,       586,
   72.1703,       618,
   72.1905,       629,
   72.2106,       597,
   72.2308,       549,
    72.251,       564,
   72.2711,       607,
   72.2913,       596,
   72.3115,       634,
   72.3316,       614,
   72.3518,       571,
    72.372,       607,
   72.3921,       633,
   72.4123,       571,
   72.4325,       621,
   72.4526,       624,
   72.4728,       610,
    72.493,       616,
   72.5132,       645,
   72.5333,       630,
   72.5535,       616,
   72.5737,       652,
   72.5938,       609,
    72.614,       625,
   72.6342,       577,
   72.6543,       606,
   72.6745,       589,
   72.6947,       625,
   72.7148,       599,
    72.735,       626,
   72.7552,       615,
   72.7753,       592,
   72.7955,       632,
   72.8157,       621,
   72.8358,       606,
    72.856,       582,
   72.8762,       617,
   72.8964,       597,
   72.9165,       574,
   72.9367,       574,
   72.9569,       623,
    72.977,       592,
   72.9972,       584,
   73.0174,       612,
   73.0375,       624,
   73.0577,       587,
   73.0779,       600,
    73.098,       672,
   73.1182,       594,
   73.1384,       635,
   73.1585,       602,
   73.1787,       606,
   73.1989,       624,
   73.2191,       615,
   73.2392,       613,
   73.2594,       661,
   73.2796,       650,
   73.2997,       601,
   73.3199,       611,
   73.3401,       630,
   73.3602,       592,
   73.3804,       631,
   73.4006,       613,
   73.4207,       637,
   73.4409,       628,
   73.4611,       611,
   73.4812,       624,
   73.5014,       616,
   73.5216,       617,
   73.5417,       598,
   73.5619,       633,
   73.5821,       623,
   73.6023,       645,
   73.6224,       677,
   73.6426,       657,
   73.6628,       609,
   73.6829,       681,
   73.7031,       598,
   73.7233,       629,
   73.7434,       645,
   73.7636,       654,
   73.7838,       706,
   73.8039,       688,
   73.8241,       671,
   73.8443,       681,
   73.8644,       723,
   73.8846,       753,
   73.9048,       751,
   73.9249,       803,
   73.9451,       810,
   73.9653,       853,
   73.9855,       808,
   74.0056,       801,
   74.0258,       820,
    74.046,       806,
   74.0661,       851,
   74.0863,       902,
   74.1065,      1052,
   74.1266,      1079,
   74.1468,      1168,
    74.167,      1457,
   74.1871,      1762,
   74.2073,      2435,
   74.2275,      3739,
   74.2476,      6046,
   74.2678,      9127,
    74.288,     10568,
   74.3082,      9386,
   74.3283,      6281,
   74.3485,      3910,
   74.3687,      2655,
   74.3888,      2139,
    74.409,      1986,
   74.4292,      2261,
   74.4493,      2987,
   74.4695,      4104,
   74.4897,      5375,
   74.5098,      5659,
     74.53,      4603,
   74.5502,      3242,
   74.5703,      2100,
   74.5905,      1565,
   74.6107,      1256,
   74.6308,      1070,
    74.651,       925,
   74.6712,       901,
   74.6914,       866,
   74.7115,       815,
   74.7317,       782,
   74.7519,       773,
    74.772,       783,
   74.7922,       715,
   74.8124,       739,
   74.8325,       702,
   74.8527,       693,
   74.8729,       659,
    74.893,       712,
   74.9132,       651,
   74.9334,       691,
   74.9535,       704,
   74.9737,       644,
   74.9939,       620,
    75.014,       646,
   75.0342,       615,
   75.0544,       586,
   75.0746,       661,
   75.0947,       614,
   75.1149,       600,
   75.1351,       620,
   75.1552,       588,
   75.1754,       579,
   75.1956,       634,
   75.2157,       673,
   75.2359,       586,
   75.2561,       635,
   75.2762,       628,
   75.2964,       605,
   75.3166,       602,
   75.3367,       613,
   75.3569,       568,
   75.3771,       639,
   75.3973,       592,
   75.4174,       562,
   75.4376,       601,
   75.4578,       612,
   75.4779,       634,
   75.4981,       595,
   75.5183,       595,
   75.5384,       608,
   75.5586,       620,
   75.5788,       582,
   75.5989,       533,
   75.6191,       613,
   75.6393,       587,
   75.6594,       584,
   75.6796,       591,
   75.6998,       609,
   75.7199,       561,
   75.7401,       644,
   75.7603,       540,
   75.7805,       631,
   75.8006,       586,
   75.8208,       604,
    75.841,       636,
   75.8611,       632,
   75.8813,       667,
   75.9015,       621,
   75.9216,       592,
   75.9418,       595,
    75.962,       634,
   75.9821,       590,
   76.0023,       569,
   76.0225,       584,
   76.0426,       562,
   76.0628,       664,
    76.083,       596,
   76.1032,       653,
   76.1233,       585,
   76.1435,       605,
   76.1637,       622,
   76.1838,       615,
    76.204,       610,
   76.2242,       621,
   76.2443,       582,
   76.2645,       620,
   76.2847,       617,
   76.3048,       542,
    76.325,       614,
   76.3452,       646,
   76.3653,       577,
   76.3855,       587,
   76.4057,       588,
   76.4258,       587,
    76.446,       571,
   76.4662,       543,
   76.4864,       606,
   76.5065,       568,
   76.5267,       595,
   76.5469,       610,
    76.567,       555,
   76.5872,       624,
   76.6074,       573,
   76.6275,       578,
   76.6477,       613,
   76.6679,       562,
    76.688,       605,
   76.7082,       571,
   76.7284,       587,
   76.7485,       611,
   76.7687,       582,
   76.7889,       618,
    76.809,       615,
   76.8292,       585,
   76.8494,       580,
   76.8696,       565,
   76.8897,       596,
   76.9099,       591,
   76.9301,       614,
   76.9502,       562,
   76.9704,       574,
   76.9906,       585,
   77.0107,       594,
   77.0309,       592,
   77.0511,       599,
   77.0712,       622,
   77.0914,       593,
   77.1116,       603,
   77.1317,       577,
   77.1519,       613,
   77.1721,       563,
   77.1923,       609,
   77.2124,       582,
   77.2326,       576,
   77.2528,       604,
   77.2729,       605,
   77.2931,       588,
   77.3133,       590,
   77.3334,       584,
   77.3536,       619,
   77.3738,       609,
   77.3939,       598,
   77.4141,       604,
   77.4343,       598,
   77.4544,       562,
   77.4746,       574,
   77.4948,       612,
   77.5149,       588,
   77.5351,       589,
   77.5553,       618,
   77.5755,       587,
   77.5956,       552,
   77.6158,       595,
    77.636,       590,
   77.6561,       609,
   77.6763,       624,
   77.6965,       585,
   77.7166,       561,
   77.7368,       550,
    77.757,       590,
   77.7771,       565,
   77.7973,       618,
   77.8175,       631,
   77.8376,       614,
   77.8578,       551,
    77.878,       632,
   77.8981,       586,
   77.9183,       564,
   77.9385,       641,
   77.9587,       597,
   77.9788,       571,
    77.999,       577,
