;RAW4.00
[RawHeader]
Date=11/26/2025
EstimatedTotalTime=426.6
FurtherDQLReading=0
HardwareIndicator=65519
MeasuredTotalTime=4.29471
MeasurementFlag=1
NumberOfMeasuredRanges=1
NumberOfRanges=1
Time=11:22:46

[VarInfo]
Type=USER
Flags=0
Value=Lab Manager

[VarInfo]
Type=SAMPLEID
Flags=0
Value=Commander Sample ID

[VarInfo]
Type=COMMENT
Flags=0
Value=

[VarInfo]
Type=UTF
Flags=0
Value=

[VarInfo]
Type=CREATOR
Flags=0
Value=V5Converter

[VarInfo]
Type=CREATOR_VERSION
Flags=0
Value=4.4.16.0

[HardwareConfiguration]
AbsorptionFactor=9999
ActivateAbsorber=0
Alpha1=1.5406
Alpha2=1.54439
AlphaAverage=1.54184
AlphaRatio=0.5
Analyzer=0
Anode=Cu
AntiScatteringSlit=9999
BeamOpticsFlags=0
Beta=1.39222
BetaRelativeIntensity=0
DeactivateAbsorber=0
DetectorSlit=9999
DivergenceSlit=9999
GoniometerControl=0
GoniometerDiameter=282
GoniometerModel=256
GoniometerStage=7
Monochromator=0
NearSampleSlit=9999
PrimarySollerSlit=9999
SampleChanger=0
SecondSollerSlit=9999
SynchronousAxis=0
ThinFilmAttachment=9999
WaveUnit=A

[RangeHeader]
ActuallyUsedLambda=1.54184
AdditionalDetectorMask=257
DataRecordLength=4
DelayTime=0
DisplayPlaneNumber=0
EstimatedScanTime=427
ExtraParametersMask=0
GeneratorCurrent=10
GeneratorVoltage=30
Increment=0.0201685
Increment3=0
NumberOfCompletedData=1885
NumberOfCounts=1
NumberOfDetectors=0
NumberOfDrives=3
NumberOfEncoderDrives=0
NumberOfMeasuredData=1885
NumberOfVaryingParameters=0
RangeStartTime=0
RotationSpeed=0
ScanMode=1
ScanType=Locked Coupled
SimulatedMeasConditions=0
SlitChangerIn=0
SmootingWidth=0
Start=40.0015
Steps=1885
SynchronousRotation=0
Time=33

[VarInfo]
Type=PSD_DISCRIM
Flags=0
Value=0.11;0.5

[VarInfo]
Type=OPTICS_V5
Flags=0
Value=H4sIAAAAAAAEAO1d63KjOhJ+Fda/zqmtBIPtXKaITzm2J+OaOHbFTnKmtrZcBORYZzC4AOey//d99hl2X2x1QViIS8C3JBN+TCaodWm6+2vUUkfS/nieW9IjcD3o2GcV5bBakYBtOCa0H84qS396oBxV/mhqF44NnTnwgdt25gvHBrbf0X1dQq1t78uzB88qM99ffJHlp6enw6faoeM+yGq1qsh/9i9HxgzM9QNoe75uG6AStjJfb1WRbqEH7y1wpc/BWWXFR0joAM9w4cInL/Bj4UHLsSW+3oXrLBc9NBZ6t3Pgojcb3P8FDH+o+7OzitwBj9AAMt+CrxUfl1Lblu55QRehTORzoM8XqLDt2L4ObeBy/coBc6yHluEvdYtxoR6o1ePT02O5h8TkLue4tzhrTW2EZGjqqBswQr3oFvyXjl+9OdUtD2hyGln7c259hcAyrwHqHhq4EDFpA/KbJ8lNjfKD1ToCFipvdm00JDA1OUbR6Btwou9Ab2HpL824AjQ5tXK8m+bF4OrHhPzodEft64TGrBVWDOsoPhpP1bBWhrxWvISy1r0hIUP+4r8skMLHrm78xG8sGODQhXPdfSHkZBMMakgD9GxISBvSeHkPOIFIQeOidilHx44baRI9r5mSRmyEDSxUYBJZ3blu/xy4JnCvAfYzAL0wsdX3b8s5NVnMwIfj6+8T9KPV/l7IxHm5Jhp5z0OvBh9BE+kGCS98DAk920dCZMIVSikeHA9SJulgmhwp1bAq2ZMXfZT4B2LSAxc+QFu3ogSlwl6OWi7Ssb/0moPwnSLFGmsYPPedJdIj0qJQrgWE0MJ5JCOdEXICmjFtjmnJUA7J0tRxpRHQLUBtYA3AytxYcejGiMm4JZa46kmmLG0LrhEWBa3xcus++8A2MZDfDYZpCWdMkQKtj5nwHfcltGVFk+OFGseMJxH2qHoYWND7cnJosmJN5ku1uCnh1+H65qyTKx3Y545jAR1NEG5s6BPpdiDSG56bXcI59IlYwiKvWdVk7knrgKm+tPxb3VoCboigVyQ96CPXTshnFewlKri/oQta5l9LD8GnYEuZYx67mbHTJoqe6ZblPK0cjVCOarZnwPgJzFUVVqC1ESPOHKsWvx33pNH5Zl7erhEyxkg2xVq1lr7TdoHug6HrLIDrvzAWEyiR9/eIRfdMhLKr5fweuE21rslCEdaQRS08UPF//xMyUSUc9B0TNG8Quqbos4xMnTwz90Y+PzEHluy7tuWt5HgP/ND5vNXOHBXjLvaN2aNbYuh5A79Evm3IJvErCL6JJ23LP418rD3OPSHRTOHDEjnla/gw85sIdabECnU0BoKwUKWYS+vrz5fAfvBnTbXRwKJhj2nOjrJISkNktZevObqMVm/q5DL4SnFwGS02cm5pFninPwKqkpa1mOmKYIUieVuWOJh2nCVqyWzxf//ehzWm2Nxw9uJBQ7dIeQJnTA/KYaNePXrNFtfo7ca2MPfItOjcf/WMZelYS+paugfVBtErK9H60Ibz5bx5oBwenx4fndaUWv3kSK0pjePu32vVE4S4oAZGIvklvWZQ4W0Rs4b0UpC0Rk/7QJiajTD10yOsXjvdJsRYdyXGNhLfFkDGuto1yh6Bqz+IoV6M/ulxppzUt4kz1l2Js43EtwWcsa52jLNz4OupIMPET46w2qmqqttD2Kq7EmEbiW9jhK262jHCrvGaRirECHVXGHuvCFutth02NsJWrKMSVWsKbh08xTrZCZK+OsbSG7gQ2D5ZHRSgJJK3tspG1g4H057tH9XfH6CibEVXr/OjKbkXhfRCBYDfqOeDOWLs0nmABl3VvJn0rm5bl73OpP2tN9TkFYkJfAye/WbPftQtiMQzg4uVjCJaIvW07+CFjI1lEf6uyTEWsnm67F2lsnIJbSARW0kbWtlk6OEgY+yhA20/e3B1k8GZLoaD0auqCHeKD6S58wgk35HmwJjpNrYKCTmTxd/SeKxl8/ienF2WXefzdFk9bOTm6N5Lz546UqiqhAVciZbr3FOQY3BWIVUkVBrdJr+ZtC6H31rRcrGRhEeyyEjkXXKxo0bYURPZUVPYUbPYUQuzEywL8PxEyoQBQloib5PW7UUWe0HrokySmCrg8D78PeybkkWGzrvjVjIvuH4+FiIbUQEDqBXeyxN46LJSkY3uZbffvRqnSMV2TCAFbaXVSDlkQmfBvNq4EkHsASVZZdetcW+QpTTSOp+8YlOLgL9pYnk4ToQicvl10J4MrpMZJONJkeZyfMe6Ed+xvgA2skTfcYU8TFacvPmcsQFLZ8dr7r82tXQiP3O7dSw/voYXlO4q5vl5u6WEjcypLxqFfRNqVSHyCL4FKaFHctihVBMCjFp1f7FErbF+MBEXRsEvZLo55TW19tJ1sT+LmlpQuitTm7f2YWpolHD6sQ1TaySFsh/E0uKy2LulDZ0nkgHOmxQp25WV3aUEnW+xcHMnRJr5lluqhymm+EkWW+4491hde7Ul3ssWbV9+7YtfJA0UTQyNGXBfyVbbPA8ud74bklUw60j9YgWfilQ/I4dzraYmBmuZ2QhiKJW9qxqLdLI3h6IxR/YytzAXT1vD42MIIXVJnC4nR8cylyaJ7OZRhxZeJcCPHu2eWH2ZQFkmUJYJlGUCZZlA+fE2xcsEyvezJV4mUP6aCCsTKN8TxsoEyl8VZ2UC5XvCWZlA+ashrEygfE8IKxMoywTKMoGyTKAsEyjLBMoygbJMoCwTKMsEyjKBskygLBMoywTKMoGyTKAsEyjLBMoygbJMoHzr+KNMoCwTKD9tAiXLkUS/iumT7KzT+Cmg4tm7GScqd+cL/4UkG4arGcVOT+72h4PRhP4scnoyGTg0xcTzk2U+BzLzcGMl7XBjde+HGw8WbefceR5MR45lATfhiGNKyDjkmKsg/WbotmTQQ8ElNJZEifQE7N/XgX9k+LhXSSBnuYaE6hunwkb7FPSZfOxxRGTIPPKL8PePe2KymphYK0bAR+scevtxXAin6Q2diJrmRGpv50S+wmdgEkNlcw/RmVjQz3IliCz1U2CAaRv4kdXICV5EJGb6ELHy5h6E61FQZYr/YA2o98gntQ/sOmq5XMfxeudlE7OmVzSsTJpYMhZe0hcRy1SR/jGf/zPDjH/DR/7fA2QfErQ9hAVgol98R9I5hWWaMq5mhBds4KeJUp0oaQYcIb5mwIVtN52ZmPP5qH/5US30lx930PRnYm4HLtvZktP8/WxBxzgL44DNsuvjPeVdZqh+7nWGuODWWWeI97KTtI5vABumgB1a+LnBszXslNBZz+i3gpzt3wSirjOzGenzhQXuZgBYY/QC/KUgIkkjH65UJ0ChmfamMj+F+lCxGJtFbxiJ1dIisfpGkRjhMR6HvT9h3thLD5hkeHHgLInKwm1g17oJl16CldWVYB+fXrg3mE494KdZfesZevz3Iay2B1ceYybnbh1ywVU1LSlVPTypn6qNRkNN8LvHjcOTRv24dqQqvK8VhNAM7mETbitc+w7DEUCRgJl9i2FYh7v9roNCXwNnMmzhLkORh4SYKLFGsfsMwz42ifVFRj70nYaF9FrM/4zwzYaj4jcbRuW787sNw+F2cbvhyRss3uHlOks3wMyxzMQtgMsX+xm8pBxzcfnj6s/ujy654bCjSsOZ7olX4OYEsRyOEwezQMpa3mDWKOO8X3k4Wj2jProvYAvX6KYzLmrzl7v28CTPUlxNiU9Yi8wL0ecUu0XdWrmWfniNJk2pxn6HJHazGl4xZ9PpjyfkXwFHw4ba6R6gstmscZebgP09bgIKCIswkLYN2N/zNmAmj6JSs3YC+59rJ1Cp53Ii1c+wFVhGSkUjpbRAqXF4dHrSUJRqPWmBqqEcHldP68dqfQeB0sontAHGieA9hcKI4+SmzLSadMAw70kjnLfkkW8dVkPLMIDnOS4E3hoRE+Mi7j2jlLwRUvyl1/ekrIcPHRqtqcpiLudicNWekB9FHA7lZ+eh0Ri4qHQnkdHp3mdFwxkkShPAfO0EGXBRYgTUqKlErdE1Wb0CGJXZGHSdNqGDKCsJ1TJnP6vqMuJUZpxuDuAUxgVFpsREEgUYMFu+rxszPNBZ5WDPRwluc5pzmitr4SQ+y+l5TBQhKMMCjfMcZLfIWj48ALPjYkzSv8ZE3eHvWs9sIu2S3oNHTCEVRwtgwGnwt6KsUpyC4BLvvcgEK46DYs5u+K03mpAfRZxdFKHbnGBVi0yvQisOP5lEYfRDEPwf22IqXU7pckqXI7qcECvsd+8VLsZPznhGTjB6jZVIzZz8ZA+dc9yig6ZEJvFifFQxXo8YAd9H0PIkfi6GHAXNPKxILbzB7vVR6AbplI5NtLGOuVT/5i2e1Rn4EFu+VFtBkewhB6uqmiyUa3yqI/WAkWUTj/6JxSqYYK6D6Pv/u9RXv2COAAA=

[PSD]
ActualTwoTheta=9999
FirstUsedChannel=0
FixedPSD=0
PSDOpening=4.99171
PSDType=5

[Drive]
DriveFlags=1
DriveName=2Theta
DriveNumber=2
DriveOffset=0
OffsetIndex=0
OscillationAmplitude=0
OscillationSpeed=0
StartPosition=40.0015

[Drive]
DriveFlags=1
DriveName=Theta
DriveNumber=1
DriveOffset=0
OffsetIndex=0
OscillationAmplitude=0
OscillationSpeed=0
StartPosition=20.0007

[Drive]
DriveFlags=1
DriveName=Phi
DriveNumber=3
DriveOffset=0
OffsetIndex=0
OscillationAmplitude=0
OscillationSpeed=0
StartPosition=0

[Data]
     Angle,       PSD,
   40.0015,       637,
   40.0217,       625,
   40.0418,       652,
    40.062,       633,
   40.0822,       677,
   40.1023,       602,
   40.1225,       650,
   40.1427,       637,
   40.1628,       641,
    40.183,       652,
   40.2032,       649,
   40.2233,       629,
   40.2435,       650,
   40.2637,       669,
   40.2838,       643,
    40.304,       564,
   40.3242,       647,
   40.3444,       617,
   40.3645,       650,
   40.3847,       621,
   40.4049,       627,
    40.425,       641,
   40.4452,       711,
   40.4654,       672,
   40.4855,       667,
   40.5057,       662,
   40.5259,       643,
    40.546,       633,
   40.5662,       652,
   40.5864,       646,
   40.6065,       633,
   40.6267,       650,
   40.6469,       626,
   40.6671,       633,
   40.6872,       605,
   40.7074,       640,
   40.7276,       647,
   40.7477,       637,
   40.7679,       609,
   40.7881,       670,
   40.8082,       685,
   40.8284,       637,
   40.8486,       610,
   40.8687,       650,
   40.8889,       583,
   40.9091,       685,
   40.9292,       669,
   40.9494,       657,
   40.9696,       645,
   40.9897,       617,
   41.0099,       652,
   41.0301,       659,
   41.0503,       628,
   41.0704,       667,
   41.0906,       626,
   41.1108,       627,
   41.1309,       612,
   41.1511,       603,
   41.1713,       636,
   41.1914,       661,
   41.2116,       690,
   41.2318,       622,
   41.2519,       658,
   41.2721,       651,
   41.2923,       639,
   41.3124,       616,
   41.3326,       644,
   41.3528,       648,
   41.3729,       626,
   41.3931,       644,
   41.4133,       642,
   41.4335,       622,
   41.4536,       635,
   41.4738,       702,
    41.494,       706,
   41.5141,       664,
   41.5343,       673,
   41.5545,       628,
   41.5746,       631,
   41.5948,       668,
    41.615,       684,
   41.6351,       624,
   41.6553,       645,
   41.6755,       661,
   41.6956,       678,
   41.7158,       671,
    41.736,       665,
   41.7562,       639,
   41.7763,       653,
   41.7965,       639,
   41.8167,       703,
   41.8368,       736,
    41.857,       798,
   41.8772,       751,
   41.8973,       736,
   41.9175,       770,
   41.9377,       746,
   41.9578,       756,
    41.978,       753,
   41.9982,       780,
   42.0183,       792,
   42.0385,       767,
   42.0587,       755,
   42.0788,       784,
    42.099,       769,
   42.1192,       756,
   42.1394,       793,
   42.1595,       787,
   42.1797,       750,
   42.1999,       774,
     42.22,       785,
   42.2402,       790,
   42.2604,       792,
   42.2805,       795,
   42.3007,       801,
   42.3209,       784,
    42.341,       795,
   42.3612,       757,
   42.3814,       808,
   42.4015,       772,
   42.4217,       780,
   42.4419,       804,
    42.462,       774,
   42.4822,       823,
   42.5024,       730,
   42.5226,       829,
   42.5427,       783,
   42.5629,       784,
   42.5831,       765,
   42.6032,       810,
   42.6234,       817,
   42.6436,       816,
   42.6637,       805,
   42.6839,       845,
   42.7041,       835,
   42.7242,       803,
   42.7444,       870,
   42.7646,       802,
   42.7847,       827,
   42.8049,       840,
   42.8251,       889,
   42.8453,       887,
   42.8654,       895,
   42.8856,       916,
   42.9058,       971,
   42.9259,      1029,
   42.9461,      1051,
   42.9663,      1076,
   42.9864,      1120,
   43.0066,      1198,
   43.0268,      1277,
   43.0469,      1304,
   43.0671,      1351,
   43.0873,      1429,
   43.1074,      1559,
   43.1276,      1732,
   43.1478,      1875,
   43.1679,      2079,
   43.1881,      2265,
   43.2083,      2373,
   43.2285,      2544,
   43.2486,      2978,
   43.2688,      3874,
    43.289,      5981,
   43.3091,     11456,
   43.3293,     25717,
   43.3495,     50817,
   43.3696,     61705,
   43.3898,     41345,
     43.41,     19388,
   43.4301,     14204,
   43.4503,     20860,
   43.4705,     30856,
   43.4906,     29294,
   43.5108,     16262,
    43.531,      7501,
   43.5511,      4104,
   43.5713,      2970,
   43.5915,      2531,
   43.6117,      2203,
   43.6318,      1973,
    43.652,      1835,
   43.6722,      1687,
   43.6923,      1471,
   43.7125,      1382,
   43.7327,      1214,
   43.7528,      1239,
    43.773,      1151,
   43.7932,      1087,
   43.8133,      1026,
   43.8335,       957,
   43.8537,       924,
   43.8738,       948,
    43.894,       916,
   43.9142,       940,
   43.9344,       925,
   43.9545,       928,
   43.9747,       876,
   43.9949,       866,
    44.015,       824,
   44.0352,       834,
   44.0554,       849,
   44.0755,       837,
   44.0957,       820,
   44.1159,       807,
    44.136,       839,
   44.1562,       822,
   44.1764,       781,
   44.1965,       774,
   44.2167,       814,
   44.2369,       778,
    44.257,       800,
   44.2772,       786,
   44.2974,       780,
   44.3176,       830,
   44.3377,       770,
   44.3579,       781,
   44.3781,       761,
   44.3982,       725,
   44.4184,       751,
   44.4386,       758,
   44.4587,       764,
   44.4789,       728,
   44.4991,       776,
   44.5192,       767,
   44.5394,       738,
   44.5596,       774,
   44.5797,       756,
   44.5999,       785,
   44.6201,       768,
   44.6402,       743,
   44.6604,       737,
   44.6806,       780,
   44.7008,       775,
   44.7209,       775,
   44.7411,       734,
   44.7613,       761,
   44.7814,       743,
   44.8016,       739,
   44.8218,       713,
   44.8419,       775,
   44.8621,       769,
   44.8823,       706,
   44.9024,       743,
   44.9226,       707,
   44.9428,       695,
   44.9629,       719,
   44.9831,       753,
   45.0033,       759,
   45.0235,       716,
   45.0436,       737,
   45.0638,       751,
    45.084,       730,
   45.1041,       745,
   45.1243,       722,
   45.1445,       708,
   45.1646,       758,
   45.1848,       739,
    45.205,       745,
   45.2251,       710,
   45.2453,       734,
   45.2655,       713,
   45.2856,       736,
   45.3058,       732,
    45.326,       752,
   45.3461,       746,
   45.3663,       750,
   45.3865,       700,
   45.4067,       699,
   45.4268,       772,
    45.447,       747,
   45.4672,       723,
   45.4873,       698,
   45.5075,       694,
   45.5277,       712,
   45.5478,       724,
    45.568,       734,
   45.5882,       733,
   45.6083,       681,
   45.6285,       704,
   45.6487,       682,
   45.6688,       711,
    45.689,       679,
   45.7092,       723,
   45.7294,       688,
   45.7495,       689,
   45.7697,       638,
   45.7899,       732,
     45.81,       729,
   45.8302,       742,
   45.8504,       733,
   45.8705,       695,
   45.8907,       738,
   45.9109,       670,
    45.931,       704,
   45.9512,       718,
   45.9714,       675,
   45.9915,       703,
   46.0117,       657,
   46.0319,       683,
    46.052,       697,
   46.0722,       742,
   46.0924,       737,
   46.1126,       706,
   46.1327,       694,
   46.1529,       709,
   46.1731,       722,
   46.1932,       707,
   46.2134,       706,
   46.2336,       668,
   46.2537,       677,
   46.2739,       704,
   46.2941,       709,
   46.3142,       687,
   46.3344,       735,
   46.3546,       742,
   46.3747,       737,
   46.3949,       683,
   46.4151,       678,
   46.4352,       743,
   46.4554,       765,
   46.4756,       692,
   46.4958,       709,
   46.5159,       691,
   46.5361,       698,
   46.5563,       683,
   46.5764,       678,
   46.5966,       730,
   46.6168,       657,
   46.6369,       736,
   46.6571,       713,
   46.6773,       666,
   46.6974,       665,
   46.7176,       686,
   46.7378,       707,
   46.7579,       703,
   46.7781,       727,
   46.7983,       723,
   46.8185,       689,
   46.8386,       673,
   46.8588,       701,
    46.879,       714,
   46.8991,       693,
   46.9193,       679,
   46.9395,       671,
   46.9596,       703,
   46.9798,       724,
        47,       701,
   47.0201,       712,
   47.0403,       694,
   47.0605,       697,
   47.0806,       670,
   47.1008,       707,
    47.121,       673,
   47.1411,       687,
   47.1613,       676,
   47.1815,       636,
   47.2017,       699,
   47.2218,       713,
    47.242,       657,
   47.2622,       740,
   47.2823,       658,
   47.3025,       654,
   47.3227,       666,
   47.3428,       699,
    47.363,       678,
   47.3832,       702,
   47.4033,       683,
   47.4235,       712,
   47.4437,       725,
   47.4638,       707,
    47.484,       640,
   47.5042,       687,
   47.5243,       650,
   47.5445,       647,
   47.5647,       670,
   47.5849,       704,
    47.605,       715,
   47.6252,       658,
   47.6454,       709,
   47.6655,       669,
   47.6857,       670,
   47.7059,       714,
    47.726,       714,
   47.7462,       743,
   47.7664,       657,
   47.7865,       708,
   47.8067,       662,
   47.8269,       650,
    47.847,       666,
   47.8672,       630,
   47.8874,       711,
   47.9076,       714,
   47.9277,       635,
   47.9479,       701,
   47.9681,       701,
   47.9882,       662,
   48.0084,       696,
   48.0286,       638,
   48.0487,       620,
   48.0689,       668,
   48.0891,       647,
   48.1092,       701,
   48.1294,       745,
   48.1496,       691,
   48.1697,       707,
   48.1899,       697,
   48.2101,       690,
   48.2302,       665,
   48.2504,       741,
   48.2706,       661,
   48.2908,       700,
   48.3109,       654,
   48.3311,       718,
   48.3513,       703,
   48.3714,       686,
   48.3916,       635,
   48.4118,       685,
   48.4319,       697,
   48.4521,       711,
   48.4723,       693,
   48.4924,       657,
   48.5126,       679,
   48.5328,       705,
   48.5529,       716,
   48.5731,       689,
   48.5933,       673,
   48.6134,       731,
   48.6336,       673,
   48.6538,       680,
    48.674,       691,
   48.6941,       704,
   48.7143,       707,
   48.7345,       687,
   48.7546,       721,
   48.7748,       743,
    48.795,       716,
   48.8151,       674,
   48.8353,       666,
   48.8555,       676,
   48.8756,       722,
   48.8958,       711,
    48.916,       685,
   48.9361,       688,
   48.9563,       683,
   48.9765,       686,
   48.9967,       724,
   49.0168,       734,
    49.037,       694,
   49.0572,       747,
   49.0773,       682,
   49.0975,       721,
   49.1177,       698,
   49.1378,       704,
    49.158,       686,
   49.1782,       675,
   49.1983,       708,
   49.2185,       744,
   49.2387,       697,
   49.2588,       648,
    49.279,       723,
   49.2992,       704,
   49.3193,       716,
   49.3395,       703,
   49.3597,       693,
   49.3799,       708,
      49.4,       676,
   49.4202,       718,
   49.4404,       737,
   49.4605,       685,
   49.4807,       728,
   49.5009,       693,
    49.521,       715,
   49.5412,       739,
   49.5614,       721,
   49.5815,       694,
   49.6017,       660,
   49.6219,       744,
    49.642,       716,
   49.6622,       719,
   49.6824,       701,
   49.7025,       718,
   49.7227,       668,
   49.7429,       733,
   49.7631,       733,
   49.7832,       710,
   49.8034,       745,
   49.8236,       731,
   49.8437,       710,
   49.8639,       761,
   49.8841,       749,
   49.9042,       781,
   49.9244,       764,
   49.9446,       759,
   49.9647,       801,
   49.9849,       759,
   50.0051,       779,
   50.0252,       764,
   50.0454,       777,
   50.0656,       828,
   50.0858,       834,
   50.1059,       843,
   50.1261,       896,
   50.1463,       896,
   50.1664,       896,
   50.1866,       918,
   50.2068,      1011,
   50.2269,      1057,
   50.2471,      1140,
   50.2673,      1178,
   50.2874,      1163,
   50.3076,      1273,
   50.3278,      1335,
   50.3479,      1531,
   50.3681,      1642,
   50.3883,      2070,
   50.4084,      2659,
   50.4286,      4057,
   50.4488,      6590,
    50.469,     10450,
   50.4891,     14375,
   50.5093,     13617,
   50.5295,      9969,
   50.5496,      6369,
   50.5698,      5097,
     50.59,      5758,
   50.6101,      7101,
   50.6303,      7955,
   50.6505,      6802,
   50.6706,      4684,
   50.6908,      3087,
    50.711,      2122,
   50.7311,      1629,
   50.7513,      1441,
   50.7715,      1206,
   50.7917,      1165,
   50.8118,      1110,
    50.832,      1017,
   50.8522,       941,
   50.8723,       943,
   50.8925,       861,
   50.9127,       902,
   50.9328,       833,
    50.953,       800,
   50.9732,       811,
   50.9933,       752,
   51.0135,       772,
   51.0337,       764,
   51.0538,       781,
    51.074,       746,
   51.0942,       725,
   51.1143,       717,
   51.1345,       732,
   51.1547,       729,
   51.1749,       704,
    51.195,       740,
   51.2152,       758,
   51.2354,       709,
   51.2555,       722,
   51.2757,       707,
   51.2959,       713,
    51.316,       643,
   51.3362,       706,
   51.3564,       741,
   51.3765,       674,
   51.3967,       662,
   51.4169,       664,
    51.437,       683,
   51.4572,       694,
   51.4774,       691,
   51.4975,       688,
   51.5177,       692,
   51.5379,       717,
   51.5581,       676,
   51.5782,       705,
   51.5984,       747,
   51.6186,       664,
   51.6387,       622,
   51.6589,       675,
   51.6791,       639,
   51.6992,       635,
   51.7194,       668,
   51.7396,       692,
   51.7597,       674,
   51.7799,       695,
   51.8001,       662,
   51.8202,       693,
   51.8404,       686,
   51.8606,       687,
   51.8808,       689,
   51.9009,       686,
   51.9211,       681,
   51.9413,       669,
   51.9614,       658,
   51.9816,       645,
   52.0018,       674,
   52.0219,       688,
   52.0421,       673,
   52.0623,       683,
   52.0824,       698,
   52.1026,       694,
   52.1228,       711,
   52.1429,       714,
   52.1631,       641,
   52.1833,       695,
   52.2034,       695,
   52.2236,       638,
   52.2438,       659,
    52.264,       657,
   52.2841,       674,
   52.3043,       679,
   52.3245,       667,
   52.3446,       680,
   52.3648,       702,
    52.385,       658,
   52.4051,       683,
   52.4253,       707,
   52.4455,       660,
   52.4656,       664,
   52.4858,       668,
    52.506,       692,
   52.5261,       648,
   52.5463,       646,
   52.5665,       635,
   52.5866,       688,
   52.6068,       632,
    52.627,       626,
   52.6472,       694,
   52.6673,       671,
   52.6875,       696,
   52.7077,       648,
   52.7278,       651,
    52.748,       674,
   52.7682,       677,
   52.7883,       675,
   52.8085,       671,
   52.8287,       707,
   52.8488,       662,
    52.869,       675,
   52.8892,       648,
   52.9093,       662,
   52.9295,       656,
   52.9497,       683,
   52.9699,       666,
     52.99,       635,
   53.0102,       645,
   53.0304,       662,
   53.0505,       667,
   53.0707,       663,
   53.0909,       658,
    53.111,       655,
   53.1312,       649,
   53.1514,       687,
   53.1715,       671,
   53.1917,       682,
   53.2119,       657,
    53.232,       699,
   53.2522,       652,
   53.2724,       663,
   53.2925,       657,
   53.3127,       677,
   53.3329,       690,
   53.3531,       672,
   53.3732,       663,
   53.3934,       596,
   53.4136,       673,
   53.4337,       686,
   53.4539,       698,
   53.4741,       638,
   53.4942,       674,
   53.5144,       675,
   53.5346,       649,
   53.5547,       705,
   53.5749,       620,
   53.5951,       668,
   53.6152,       607,
   53.6354,       694,
   53.6556,       686,
   53.6757,       659,
   53.6959,       612,
   53.7161,       613,
   53.7363,       661,
   53.7564,       643,
   53.7766,       698,
   53.7968,       664,
   53.8169,       638,
   53.8371,       630,
   53.8573,       624,
   53.8774,       667,
   53.8976,       665,
   53.9178,       654,
   53.9379,       651,
   53.9581,       654,
   53.9783,       650,
   53.9984,       685,
   54.0186,       626,
   54.0388,       637,
    54.059,       663,
   54.0791,       641,
   54.0993,       627,
   54.1195,       653,
   54.1396,       621,
   54.1598,       618,
     54.18,       682,
   54.2001,       659,
   54.2203,       646,
   54.2405,       648,
   54.2606,       622,
   54.2808,       638,
    54.301,       661,
   54.3211,       673,
   54.3413,       665,
   54.3615,       656,
   54.3816,       685,
   54.4018,       647,
    54.422,       662,
   54.4422,       663,
   54.4623,       670,
   54.4825,       637,
   54.5027,       649,
   54.5228,       645,
    54.543,       630,
   54.5632,       634,
   54.5833,       644,
   54.6035,       654,
   54.6237,       637,
   54.6438,       619,
    54.664,       693,
   54.6842,       638,
   54.7043,       653,
   54.7245,       641,
   54.7447,       632,
   54.7648,       596,
    54.785,       641,
   54.8052,       661,
   54.8254,       698,
   54.8455,       653,
   54.8657,       642,
   54.8859,       633,
    54.906,       667,
   54.9262,       634,
   54.9464,       646,
   54.9665,       642,
   54.9867,       634,
   55.0069,       652,
    55.027,       679,
   55.0472,       670,
   55.0674,       684,
   55.0875,       681,
   55.1077,       601,
   55.1279,       627,
   55.1481,       603,
   55.1682,       645,
   55.1884,       662,
   55.2086,       626,
   55.2287,       658,
   55.2489,       637,
   55.2691,       639,
   55.2892,       607,
   55.3094,       617,
   55.3296,       676,
   55.3497,       632,
   55.3699,       634,
   55.3901,       656,
   55.4102,       604,
   55.4304,       631,
   55.4506,       644,
   55.4707,       659,
   55.4909,       649,
   55.5111,       670,
   55.5313,       628,
   55.5514,       663,
   55.5716,       628,
   55.5918,       649,
   55.6119,       626,
   55.6321,       652,
   55.6523,       645,
   55.6724,       653,
   55.6926,       618,
   55.7128,       704,
   55.7329,       683,
   55.7531,       603,
   55.7733,       637,
   55.7934,       602,
   55.8136,       642,
   55.8338,       615,
    55.854,       614,
   55.8741,       629,
   55.8943,       658,
   55.9145,       667,
   55.9346,       647,
   55.9548,       634,
    55.975,       637,
   55.9951,       599,
   56.0153,       609,
   56.0355,       645,
   56.0556,       616,
   56.0758,       669,
    56.096,       656,
   56.1161,       617,
   56.1363,       607,
   56.1565,       630,
   56.1766,       658,
   56.1968,       616,
    56.217,       636,
   56.2372,       613,
   56.2573,       676,
   56.2775,       643,
   56.2977,       631,
   56.3178,       635,
    56.338,       584,
   56.3582,       606,
   56.3783,       639,
   56.3985,       632,
   56.4187,       647,
   56.4388,       643,
    56.459,       633,
   56.4792,       631,
   56.4993,       664,
   56.5195,       661,
   56.5397,       608,
   56.5598,       601,
     56.58,       642,
   56.6002,       640,
   56.6204,       643,
   56.6405,       652,
   56.6607,       608,
   56.6809,       613,
    56.701,       611,
   56.7212,       602,
   56.7414,       687,
   56.7615,       657,
   56.7817,       657,
   56.8019,       634,
    56.822,       616,
   56.8422,       645,
   56.8624,       624,
   56.8825,       640,
   56.9027,       653,
   56.9229,       610,
   56.9431,       629,
   56.9632,       700,
   56.9834,       614,
   57.0036,       624,
   57.0237,       621,
   57.0439,       659,
   57.0641,       655,
   57.0842,       626,
   57.1044,       606,
   57.1246,       628,
   57.1447,       639,
   57.1649,       638,
   57.1851,       638,
   57.2052,       618,
   57.2254,       659,
   57.2456,       661,
   57.2657,       617,
   57.2859,       637,
   57.3061,       575,
   57.3263,       659,
   57.3464,       612,
   57.3666,       597,
   57.3868,       649,
   57.4069,       644,
   57.4271,       680,
   57.4473,       591,
   57.4674,       651,
   57.4876,       616,
   57.5078,       635,
   57.5279,       636,
   57.5481,       589,
   57.5683,       624,
   57.5884,       641,
   57.6086,       643,
   57.6288,       679,
   57.6489,       672,
   57.6691,       600,
   57.6893,       610,
   57.7095,       631,
   57.7296,       628,
   57.7498,       594,
     57.77,       635,
   57.7901,       624,
   57.8103,       615,
   57.8305,       645,
   57.8506,       627,
   57.8708,       627,
    57.891,       651,
   57.9111,       641,
   57.9313,       634,
   57.9515,       627,
   57.9716,       608,
   57.9918,       581,
    58.012,       652,
   58.0322,       616,
   58.0523,       638,
   58.0725,       629,
   58.0927,       621,
   58.1128,       647,
    58.133,       625,
   58.1532,       654,
   58.1733,       678,
   58.1935,       625,
   58.2137,       582,
   58.2338,       597,
    58.254,       602,
   58.2742,       648,
   58.2943,       612,
   58.3145,       601,
   58.3347,       646,
   58.3548,       648,
    58.375,       600,
   58.3952,       599,
   58.4154,       639,
   58.4355,       619,
   58.4557,       622,
   58.4759,       618,
    58.496,       621,
   58.5162,       614,
   58.5364,       643,
   58.5565,       640,
   58.5767,       670,
   58.5969,       609,
    58.617,       639,
   58.6372,       616,
   58.6574,       673,
   58.6775,       623,
   58.6977,       646,
   58.7179,       602,
    58.738,       593,
   58.7582,       627,
   58.7784,       596,
   58.7986,       626,
   58.8187,       629,
   58.8389,       619,
   58.8591,       657,
   58.8792,       626,
   58.8994,       628,
   58.9196,       611,
   58.9397,       609,
   58.9599,       597,
   58.9801,       640,
   59.0002,       652,
   59.0204,       620,
   59.0406,       638,
   59.0607,       632,
   59.0809,       663,
   59.1011,       581,
   59.1213,       615,
   59.1414,       609,
   59.1616,       685,
   59.1818,       607,
   59.2019,       611,
   59.2221,       650,
   59.2423,       598,
   59.2624,       647,
   59.2826,       609,
   59.3028,       617,
   59.3229,       602,
   59.3431,       614,
   59.3633,       608,
   59.3834,       590,
   59.4036,       635,
   59.4238,       613,
   59.4439,       626,
   59.4641,       647,
   59.4843,       602,
   59.5045,       646,
   59.5246,       644,
   59.5448,       595,
    59.565,       621,
   59.5851,       623,
   59.6053,       630,
   59.6255,       625,
   59.6456,       617,
   59.6658,       612,
    59.686,       631,
   59.7061,       634,
   59.7263,       608,
   59.7465,       633,
   59.7666,       639,
   59.7868,       596,
    59.807,       608,
   59.8271,       629,
   59.8473,       588,
   59.8675,       619,
   59.8877,       595,
   59.9078,       627,
    59.928,       635,
   59.9482,       613,
   59.9683,       648,
   59.9885,       620,
   60.0087,       640,
   60.0288,       598,
    60.049,       639,
   60.0692,       606,
   60.0893,       645,
   60.1095,       624,
   60.1297,       643,
   60.1498,       593,
     60.17,       638,
   60.1902,       637,
   60.2104,       646,
   60.2305,       596,
   60.2507,       599,
   60.2709,       603,
    60.291,       630,
   60.3112,       645,
   60.3314,       604,
   60.3515,       624,
   60.3717,       613,
   60.3919,       620,
    60.412,       632,
   60.4322,       662,
   60.4524,       599,
   60.4725,       632,
   60.4927,       599,
   60.5129,       628,
    60.533,       642,
   60.5532,       621,
   60.5734,       622,
   60.5936,       655,
   60.6137,       615,
   60.6339,       672,
   60.6541,       604,
   60.6742,       631,
   60.6944,       697,
   60.7146,       588,
   60.7347,       592,
   60.7549,       617,
   60.7751,       628,
   60.7952,       616,
   60.8154,       619,
   60.8356,       637,
   60.8557,       607,
   60.8759,       605,
   60.8961,       608,
   60.9163,       649,
   60.9364,       623,
   60.9566,       575,
   60.9768,       625,
   60.9969,       627,
   61.0171,       617,
   61.0373,       623,
   61.0574,       618,
   61.0776,       622,
   61.0978,       611,
   61.1179,       677,
   61.1381,       608,
   61.1583,       645,
   61.1784,       640,
   61.1986,       618,
   61.2188,       656,
   61.2389,       613,
   61.2591,       614,
   61.2793,       615,
   61.2995,       645,
   61.3196,       587,
   61.3398,       649,
     61.36,       610,
   61.3801,       573,
   61.4003,       591,
   61.4205,       632,
   61.4406,       614,
   61.4608,       598,
    61.481,       579,
   61.5011,       651,
   61.5213,       655,
   61.5415,       598,
   61.5616,       574,
   61.5818,       612,
    61.602,       587,
   61.6221,       653,
   61.6423,       638,
   61.6625,       576,
   61.6827,       621,
   61.7028,       571,
    61.723,       612,
   61.7432,       619,
   61.7633,       597,
   61.7835,       665,
   61.8037,       640,
   61.8238,       577,
    61.844,       614,
   61.8642,       646,
   61.8843,       602,
   61.9045,       663,
   61.9247,       572,
   61.9448,       597,
    61.965,       596,
   61.9852,       616,
   62.0054,       624,
   62.0255,       611,
   62.0457,       609,
   62.0659,       632,
    62.086,       605,
   62.1062,       620,
   62.1264,       633,
   62.1465,       593,
   62.1667,       629,
   62.1869,       565,
    62.207,       658,
   62.2272,       627,
   62.2474,       612,
   62.2675,       578,
   62.2877,       583,
   62.3079,       630,
    62.328,       576,
   62.3482,       603,
   62.3684,       593,
   62.3886,       614,
   62.4087,       593,
   62.4289,       633,
   62.4491,       654,
   62.4692,       591,
   62.4894,       611,
   62.5096,       599,
   62.5297,       608,
   62.5499,       626,
   62.5701,       629,
   62.5902,       629,
   62.6104,       612,
   62.6306,       650,
   62.6507,       617,
   62.6709,       590,
   62.6911,       630,
   62.7112,       620,
   62.7314,       609,
   62.7516,       591,
   62.7718,       652,
   62.7919,       608,
   62.8121,       609,
   62.8323,       628,
   62.8524,       601,
   62.8726,       572,
   62.8928,       596,
   62.9129,       586,
   62.9331,       596,
   62.9533,       591,
   62.9734,       677,
   62.9936,       657,
   63.0138,       569,
   63.0339,       647,
   63.0541,       636,
   63.0743,       541,
   63.0945,       612,
   63.1146,       623,
   63.1348,       567,
    63.155,       636,
   63.1751,       658,
   63.1953,       672,
   63.2155,       598,
   63.2356,       668,
   63.2558,       592,
    63.276,       622,
   63.2961,       637,
   63.3163,       605,
   63.3365,       643,
   63.3566,       636,
   63.3768,       595,
    63.397,       617,
   63.4171,       609,
   63.4373,       652,
   63.4575,       625,
   63.4777,       605,
   63.4978,       608,
    63.518,       624,
   63.5382,       622,
   63.5583,       618,
   63.5785,       589,
   63.5987,       654,
   63.6188,       640,
    63.639,       618,
   63.6592,       592,
   63.6793,       601,
   63.6995,       574,
   63.7197,       603,
   63.7398,       622,
     63.76,       593,
   63.7802,       586,
   63.8003,       648,
   63.8205,       605,
   63.8407,       595,
   63.8609,       579,
    63.881,       619,
   63.9012,       625,
   63.9214,       640,
   63.9415,       618,
   63.9617,       626,
   63.9819,       584,
    64.002,       626,
   64.0222,       629,
   64.0424,       637,
   64.0625,       613,
   64.0827,       628,
   64.1029,       559,
    64.123,       602,
   64.1432,       655,
   64.1634,       560,
   64.1836,       650,
   64.2037,       614,
   64.2239,       592,
   64.2441,       637,
   64.2642,       629,
   64.2844,       600,
   64.3046,       610,
   64.3247,       606,
   64.3449,       640,
   64.3651,       611,
   64.3852,       624,
   64.4054,       602,
   64.4256,       578,
   64.4457,       617,
   64.4659,       603,
   64.4861,       616,
   64.5062,       640,
   64.5264,       590,
   64.5466,       606,
   64.5668,       600,
   64.5869,       630,
   64.6071,       649,
   64.6273,       672,
   64.6474,       591,
   64.6676,       582,
   64.6878,       645,
   64.7079,       640,
   64.7281,       592,
   64.7483,       603,
   64.7684,       589,
   64.7886,       605,
   64.8088,       649,
   64.8289,       627,
   64.8491,       595,
   64.8693,       559,
   64.8894,       600,
   64.9096,       632,
   64.9298,       641,
     64.95,       612,
   64.9701,       582,
   64.9903,       594,
   65.0105,       604,
   65.0306,       625,
   65.0508,       631,
    65.071,       615,
   65.0911,       574,
   65.1113,       634,
   65.1315,       652,
   65.1516,       587,
   65.1718,       637,
    65.192,       611,
   65.2121,       574,
   65.2323,       584,
   65.2525,       632,
   65.2727,       623,
   65.2928,       584,
    65.313,       619,
   65.3332,       616,
   65.3533,       630,
   65.3735,       609,
   65.3937,       630,
   65.4138,       588,
    65.434,       608,
   65.4542,       602,
   65.4743,       553,
   65.4945,       645,
   65.5147,       607,
   65.5348,       663,
    65.555,       617,
   65.5752,       622,
   65.5953,       567,
   65.6155,       633,
   65.6357,       658,
   65.6559,       594,
    65.676,       584,
   65.6962,       663,
   65.7164,       655,
   65.7365,       632,
   65.7567,       614,
   65.7769,       640,
    65.797,       588,
   65.8172,       631,
   65.8374,       588,
   65.8575,       595,
   65.8777,       634,
   65.8979,       614,
    65.918,       609,
   65.9382,       611,
   65.9584,       596,
   65.9786,       622,
   65.9987,       643,
   66.0189,       632,
   66.0391,       628,
   66.0592,       678,
   66.0794,       604,
   66.0996,       675,
   66.1197,       608,
   66.1399,       634,
   66.1601,       619,
   66.1802,       582,
   66.2004,       617,
   66.2206,       596,
   66.2407,       589,
   66.2609,       610,
   66.2811,       601,
   66.3012,       577,
   66.3214,       632,
   66.3416,       597,
   66.3618,       608,
   66.3819,       615,
   66.4021,       580,
   66.4223,       648,
   66.4424,       595,
   66.4626,       630,
   66.4828,       612,
   66.5029,       610,
   66.5231,       599,
   66.5433,       622,
   66.5634,       646,
   66.5836,       615,
   66.6038,       590,
   66.6239,       601,
   66.6441,       614,
   66.6643,       612,
   66.6844,       583,
   66.7046,       575,
   66.7248,       602,
    66.745,       647,
   66.7651,       631,
   66.7853,       616,
   66.8055,       595,
   66.8256,       585,
   66.8458,       662,
    66.866,       579,
   66.8861,       597,
   66.9063,       604,
   66.9265,       612,
   66.9466,       599,
   66.9668,       627,
    66.987,       652,
   67.0071,       634,
   67.0273,       648,
   67.0475,       605,
   67.0677,       590,
   67.0878,       600,
    67.108,       623,
   67.1282,       621,
   67.1483,       590,
   67.1685,       616,
   67.1887,       641,
   67.2088,       631,
    67.229,       613,
   67.2492,       614,
   67.2693,       605,
   67.2895,       591,
   67.3097,       600,
   67.3298,       631,
     67.35,       588,
   67.3702,       629,
   67.3903,       621,
   67.4105,       637,
   67.4307,       587,
   67.4509,       602,
    67.471,       624,
   67.4912,       561,
   67.5114,       628,
   67.5315,       609,
   67.5517,       600,
   67.5719,       606,
    67.592,       608,
   67.6122,       648,
   67.6324,       622,
   67.6525,       600,
   67.6727,       606,
   67.6929,       645,
    67.713,       621,
   67.7332,       611,
   67.7534,       650,
   67.7735,       606,
   67.7937,       647,
   67.8139,       617,
   67.8341,       652,
   67.8542,       606,
   67.8744,       608,
   67.8946,       636,
   67.9147,       635,
   67.9349,       611,
   67.9551,       606,
   67.9752,       595,
   67.9954,       573,
   68.0156,       598,
   68.0357,       589,
   68.0559,       593,
   68.0761,       591,
   68.0962,       583,
   68.1164,       607,
   68.1366,       619,
   68.1568,       619,
   68.1769,       597,
   68.1971,       644,
   68.2173,       620,
   68.2374,       592,
   68.2576,       595,
   68.2778,       599,
   68.2979,       607,
   68.3181,       629,
   68.3383,       603,
   68.3584,       631,
   68.3786,       628,
   68.3988,       597,
   68.4189,       591,
   68.4391,       581,
   68.4593,       602,
   68.4794,       647,
   68.4996,       621,
   68.5198,       633,
     68.54,       579,
   68.5601,       619,
   68.5803,       547,
   68.6005,       610,
   68.6206,       565,
   68.6408,       636,
    68.661,       588,
   68.6811,       587,
   68.7013,       587,
   68.7215,       577,
   68.7416,       606,
   68.7618,       632,
    68.782,       590,
   68.8021,       597,
   68.8223,       608,
   68.8425,       638,
   68.8626,       622,
   68.8828,       596,
    68.903,       636,
   68.9232,       604,
   68.9433,       589,
   68.9635,       635,
   68.9837,       560,
   69.0038,       659,
    69.024,       579,
   69.0442,       632,
   69.0643,       625,
   69.0845,       573,
   69.1047,       650,
   69.1248,       634,
    69.145,       576,
   69.1652,       574,
   69.1853,       565,
   69.2055,       611,
   69.2257,       633,
   69.2459,       617,
    69.266,       609,
   69.2862,       568,
   69.3064,       624,
   69.3265,       602,
   69.3467,       594,
   69.3669,       602,
    69.387,       575,
   69.4072,       649,
   69.4274,       658,
   69.4475,       617,
   69.4677,       631,
   69.4879,       610,
    69.508,       629,
   69.5282,       604,
   69.5484,       599,
   69.5685,       632,
   69.5887,       699,
   69.6089,       608,
   69.6291,       613,
   69.6492,       584,
   69.6694,       575,
   69.6896,       592,
   69.7097,       576,
   69.7299,       615,
   69.7501,       541,
   69.7702,       631,
   69.7904,       610,
   69.8106,       600,
   69.8307,       606,
   69.8509,       576,
   69.8711,       620,
   69.8912,       592,
   69.9114,       663,
   69.9316,       619,
   69.9517,       641,
   69.9719,       598,
   69.9921,       618,
   70.0123,       610,
   70.0324,       579,
   70.0526,       573,
   70.0728,       635,
   70.0929,       644,
   70.1131,       626,
   70.1333,       619,
   70.1534,       637,
   70.1736,       607,
   70.1938,       596,
   70.2139,       584,
   70.2341,       657,
   70.2543,       603,
   70.2744,       604,
   70.2946,       616,
   70.3148,       592,
    70.335,       608,
   70.3551,       603,
   70.3753,       589,
   70.3955,       592,
   70.4156,       611,
   70.4358,       638,
    70.456,       595,
   70.4761,       614,
   70.4963,       663,
   70.5165,       590,
   70.5366,       634,
   70.5568,       624,
    70.577,       611,
   70.5971,       634,
   70.6173,       597,
   70.6375,       582,
   70.6576,       588,
   70.6778,       642,
    70.698,       618,
   70.7182,       583,
   70.7383,       614,
   70.7585,       624,
   70.7787,       586,
   70.7988,       614,
    70.819,       600,
   70.8392,       629,
   70.8593,       576,
   70.8795,       620,
   70.8997,       632,
   70.9198,       575,
     70.94,       611,
   70.9602,       614,
   70.9803,       659,
   71.0005,       607,
   71.0207,       614,
   71.0409,       633,
    71.061,       626,
   71.0812,       602,
   71.1014,       641,
   71.1215,       582,
   71.1417,       598,
   71.1619,       592,
    71.182,       623,
   71.2022,       628,
   71.2224,       622,
   71.2425,       646,
   71.2627,       622,
   71.2829,       622,
    71.303,       571,
   71.3232,       603,
   71.3434,       642,
   71.3635,       629,
   71.3837,       640,
   71.4039,       651,
   71.4241,       635,
   71.4442,       599,
   71.4644,       660,
   71.4846,       630,
   71.5047,       588,
   71.5249,       624,
   71.5451,       629,
   71.5652,       618,
   71.5854,       606,
   71.6056,       624,
   71.6257,       615,
   71.6459,       615,
   71.6661,       657,
   71.6862,       656,
   71.7064,       678,
   71.7266,       637,
   71.7467,       622,
   71.7669,       615,
   71.7871,       651,
   71.8073,       626,
   71.8274,       662,
   71.8476,       657,
   71.8678,       624,
   71.8879,       639,
   71.9081,       682,
   71.9283,       633,
   71.9484,       630,
   71.9686,       654,
   71.9888,       605,
   72.0089,       629,
   72.0291,       607,
   72.0493,       636,
   72.0694,       632,
   72.0896,       648,
   72.1098,       652,
     72.13,       619,
   72.1501,       601,
   72.1703,       663,
   72.1905,       611,
   72.2106,       644,
   72.2308,       683,
    72.251,       615,
   72.2711,       634,
   72.2913,       628,
   72.3115,       615,
   72.3316,       644,
   72.3518,       608,
    72.372,       581,
   72.3921,       635,
   72.4123,       650,
   72.4325,       631,
   72.4526,       635,
   72.4728,       647,
    72.493,       606,
   72.5132,       648,
   72.5333,       651,
   72.5535,       671,
   72.5737,       642,
   72.5938,       605,
    72.614,       646,
   72.6342,       645,
   72.6543,       652,
   72.6745,       653,
   72.6947,       657,
   72.7148,       626,
    72.735,       633,
   72.7552,       618,
   72.7753,       649,
   72.7955,       613,
   72.8157,       610,
   72.8358,       621,
    72.856,       617,
   72.8762,       640,
   72.8964,       631,
   72.9165,       667,
   72.9367,       632,
   72.9569,       635,
    72.977,       639,
   72.9972,       690,
   73.0174,       669,
   73.0375,       644,
   73.0577,       669,
   73.0779,       614,
    73.098,       636,
   73.1182,       667,
   73.1384,       636,
   73.1585,       651,
   73.1787,       608,
   73.1989,       691,
   73.2191,       709,
   73.2392,       625,
   73.2594,       640,
   73.2796,       662,
   73.2997,       652,
   73.3199,       670,
   73.3401,       670,
   73.3602,       678,
   73.3804,       634,
   73.4006,       648,
   73.4207,       644,
   73.4409,       684,
   73.4611,       659,
   73.4812,       654,
   73.5014,       623,
   73.5216,       682,
   73.5417,       653,
   73.5619,       681,
   73.5821,       706,
   73.6023,       699,
   73.6224,       734,
   73.6426,       709,
   73.6628,       719,
   73.6829,       699,
   73.7031,       695,
   73.7233,       772,
   73.7434,       834,
   73.7636,       825,
   73.7838,       854,
   73.8039,       878,
   73.8241,       899,
   73.8443,       887,
   73.8644,       846,
   73.8846,       871,
   73.9048,       901,
   73.9249,       964,
   73.9451,       993,
   73.9653,       996,
   73.9855,      1097,
   74.0056,      1231,
   74.0258,      1360,
    74.046,      1573,
   74.0661,      1898,
   74.0863,      2669,
   74.1065,      4112,
   74.1266,      6813,
   74.1468,     10276,
    74.167,     12198,
   74.1871,     10951,
   74.2073,      7157,
   74.2275,      4371,
   74.2476,      2935,
   74.2678,      2313,
    74.288,      2164,
   74.3082,      2328,
   74.3283,      3116,
   74.3485,      4594,
   74.3687,      6148,
   74.3888,      6531,
    74.409,      5298,
   74.4292,      3554,
   74.4493,      2364,
   74.4695,      1686,
   74.4897,      1381,
   74.5098,      1151,
     74.53,      1009,
   74.5502,       957,
   74.5703,       861,
   74.5905,       838,
   74.6107,       899,
   74.6308,       823,
    74.651,       824,
   74.6712,       804,
   74.6914,       765,
   74.7115,       748,
   74.7317,       743,
   74.7519,       717,
    74.772,       699,
   74.7922,       735,
   74.8124,       684,
   74.8325,       709,
   74.8527,       670,
   74.8729,       655,
    74.893,       653,
   74.9132,       688,
   74.9334,       693,
   74.9535,       660,
   74.9737,       653,
   74.9939,       616,
    75.014,       663,
   75.0342,       699,
   75.0544,       704,
   75.0746,       698,
   75.0947,       625,
   75.1149,       674,
   75.1351,       678,
   75.1552,       664,
   75.1754,       711,
   75.1956,       635,
   75.2157,       667,
   75.2359,       657,
   75.2561,       648,
   75.2762,       650,
   75.2964,       647,
   75.3166,       630,
   75.3367,       621,
   75.3569,       671,
   75.3771,       702,
   75.3973,       622,
   75.4174,       632,
   75.4376,       648,
   75.4578,       628,
   75.4779,       634,
   75.4981,       628,
   75.5183,       664,
   75.5384,       635,
   75.5586,       617,
   75.5788,       635,
   75.5989,       625,
   75.6191,       644,
   75.6393,       638,
   75.6594,       609,
   75.6796,       646,
   75.6998,       650,
   75.7199,       601,
   75.7401,       610,
   75.7603,       625,
   75.7805,       639,
   75.8006,       594,
   75.8208,       643,
    75.841,       592,
   75.8611,       664,
   75.8813,       613,
   75.9015,       652,
   75.9216,       601,
   75.9418,       662,
    75.962,       649,
   75.9821,       707,
   76.0023,       672,
   76.0225,       677,
   76.0426,       649,
   76.0628,       681,
    76.083,       635,
   76.1032,       650,
   76.1233,       613,
   76.1435,       647,
   76.1637,       614,
   76.1838,       636,
    76.204,       637,
   76.2242,       655,
   76.2443,       624,
   76.2645,       626,
   76.2847,       662,
   76.3048,       599,
    76.325,       652,
   76.3452,       664,
   76.3653,       652,
   76.3855,       632,
   76.4057,       642,
   76.4258,       647,
    76.446,       566,
   76.4662,       606,
   76.4864,       586,
   76.5065,       573,
   76.5267,       600,
   76.5469,       633,
    76.567,       639,
   76.5872,       631,
   76.6074,       660,
   76.6275,       632,
   76.6477,       599,
   76.6679,       629,
    76.688,       618,
   76.7082,       631,
   76.7284,       651,
   76.7485,       661,
   76.7687,       631,
   76.7889,       647,
    76.809,       630,
   76.8292,       653,
   76.8494,       655,
   76.8696,       635,
   76.8897,       612,
   76.9099,       632,
   76.9301,       667,
   76.9502,       655,
   76.9704,       628,
   76.9906,       616,
   77.0107,       632,
   77.0309,       666,
   77.0511,       626,
   77.0712,       641,
   77.0914,       592,
   77.1116,       655,
   77.1317,       617,
   77.1519,       620,
   77.1721,       623,
   77.1923,       627,
   77.2124,       608,
   77.2326,       556,
   77.2528,       590,
   77.2729,       596,
   77.2931,       604,
   77.3133,       607,
   77.3334,       604,
   77.3536,       639,
   77.3738,       618,
   77.3939,       660,
   77.4141,       674,
   77.4343,       615,
   77.4544,       618,
   77.4746,       650,
   77.4948,       596,
   77.5149,       625,
   77.5351,       647,
   77.5553,       607,
   77.5755,       605,
   77.5956,       626,
   77.6158,       652,
    77.636,       614,
   77.6561,       615,
   77.6763,       633,
   77.6965,       599,
   77.7166,       665,
   77.7368,       622,
    77.757,       645,
   77.7771,       614,
   77.7973,       624,
   77.8175,       619,
   77.8376,       645,
   77.8578,       607,
    77.878,       661,
   77.8981,       590,
   77.9183,       584,
   77.9385,       606,
   77.9587,       600,
   77.9788,       582,
    77.999,       656,
