;RAW4.00
[RawHeader]
Date=11/26/2025
EstimatedTotalTime=426.6
FurtherDQLReading=0
HardwareIndicator=65519
MeasuredTotalTime=4.29473
MeasurementFlag=1
NumberOfMeasuredRanges=1
NumberOfRanges=1
Time=01:30:59

[VarInfo]
Type=USER
Flags=0
Value=Lab Manager

[VarInfo]
Type=SAMPLEID
Flags=0
Value=Commander Sample ID

[VarInfo]
Type=COMMENT
Flags=0
Value=

[VarInfo]
Type=UTF
Flags=0
Value=

[VarInfo]
Type=CREATOR
Flags=0
Value=V5Converter

[VarInfo]
Type=CREATOR_VERSION
Flags=0
Value=4.4.16.0

[HardwareConfiguration]
AbsorptionFactor=9999
ActivateAbsorber=0
Alpha1=1.5406
Alpha2=1.54439
AlphaAverage=1.54184
AlphaRatio=0.5
Analyzer=0
Anode=Cu
AntiScatteringSlit=9999
BeamOpticsFlags=0
Beta=1.39222
BetaRelativeIntensity=0
DeactivateAbsorber=0
DetectorSlit=9999
DivergenceSlit=9999
GoniometerControl=0
GoniometerDiameter=282
GoniometerModel=256
GoniometerStage=7
Monochromator=0
NearSampleSlit=9999
PrimarySollerSlit=9999
SampleChanger=0
SecondSollerSlit=9999
SynchronousAxis=0
ThinFilmAttachment=9999
WaveUnit=A

[RangeHeader]
ActuallyUsedLambda=1.54184
AdditionalDetectorMask=257
DataRecordLength=4
DelayTime=0
DisplayPlaneNumber=0
EstimatedScanTime=427
ExtraParametersMask=0
GeneratorCurrent=10
GeneratorVoltage=30
Increment=0.0201685
Increment3=0
NumberOfCompletedData=1885
NumberOfCounts=1
NumberOfDetectors=0
NumberOfDrives=3
NumberOfEncoderDrives=0
NumberOfMeasuredData=1885
NumberOfVaryingParameters=0
RangeStartTime=0
RotationSpeed=0
ScanMode=1
ScanType=Locked Coupled
SimulatedMeasConditions=0
SlitChangerIn=0
SmootingWidth=0
Start=40.0015
Steps=1885
SynchronousRotation=0
Time=33

[VarInfo]
Type=PSD_DISCRIM
Flags=0
Value=0.11;0.5

[VarInfo]
Type=OPTICS_V5
Flags=0
Value=H4sIAAAAAAAEAO1d63KjOhJ+Fda/zqmtBIPtXKaITzm2J+OaOHbFTnKmtrZcBORYZzC4AOey//d99hl2X2x1QViIS8C3JBN+TCaodWm6+2vUUkfS/nieW9IjcD3o2GcV5bBakYBtOCa0H84qS396oBxV/mhqF44NnTnwgdt25gvHBrbf0X1dQq1t78uzB88qM99ffJHlp6enw6faoeM+yGq1qsh/9i9HxgzM9QNoe75uG6AStjJfb1WRbqEH7y1wpc/BWWXFR0joAM9w4cInL/Bj4UHLsSW+3oXrLBc9NBZ6t3Pgojcb3P8FDH+o+7OzitwBj9AAMt+CrxUfl1Lblu55QRehTORzoM8XqLDt2L4ObeBy/coBc6yHluEvdYtxoR6o1ePT02O5h8TkLue4tzhrTW2EZGjqqBswQr3oFvyXjl+9OdUtD2hyGln7c259hcAyrwHqHhq4EDFpA/KbJ8lNjfKD1ToCFipvdm00JDA1OUbR6Btwou9Ab2HpL824AjQ5tXK8m+bF4OrHhPzodEft64TGrBVWDOsoPhpP1bBWhrxWvISy1r0hIUP+4r8skMLHrm78xG8sGODQhXPdfSHkZBMMakgD9GxISBvSeHkPOIFIQeOidilHx44baRI9r5mSRmyEDSxUYBJZ3blu/xy4JnCvAfYzAL0wsdX3b8s5NVnMwIfj6+8T9KPV/l7IxHm5Jhp5z0OvBh9BE+kGCS98DAk920dCZMIVSikeHA9SJulgmhwp1bAq2ZMXfZT4B2LSAxc+QFu3ogSlwl6OWi7Ssb/0moPwnSLFGmsYPPedJdIj0qJQrgWE0MJ5JCOdEXICmjFtjmnJUA7J0tRxpRHQLUBtYA3AytxYcejGiMm4JZa46kmmLG0LrhEWBa3xcus++8A2MZDfDYZpCWdMkQKtj5nwHfcltGVFk+OFGseMJxH2qHoYWND7cnJosmJN5ku1uCnh1+H65qyTKx3Y545jAR1NEG5s6BPpdiDSG56bXcI59IlYwiKvWdVk7knrgKm+tPxb3VoCboigVyQ96CPXTshnFewlKri/oQta5l9LD8GnYEuZYx67mbHTJoqe6ZblPK0cjVCOarZnwPgJzFUVVqC1ESPOHKsWvx33pNH5Zl7erhEyxkg2xVq1lr7TdoHug6HrLIDrvzAWEyiR9/eIRfdMhLKr5fweuE21rslCEdaQRS08UPF//xMyUSUc9B0TNG8Quqbos4xMnTwz90Y+PzEHluy7tuWt5HgP/ND5vNXOHBXjLvaN2aNbYuh5A79Evm3IJvErCL6JJ23LP418rD3OPSHRTOHDEjnla/gw85sIdabECnU0BoKwUKWYS+vrz5fAfvBnTbXRwKJhj2nOjrJISkNktZevObqMVm/q5DL4SnFwGS02cm5pFninPwKqkpa1mOmKYIUieVuWOJh2nCVqyWzxf//ehzWm2Nxw9uJBQ7dIeQJnTA/KYaNePXrNFtfo7ca2MPfItOjcf/WMZelYS+paugfVBtErK9H60Ibz5bx5oBwenx4fndaUWv3kSK0pjePu32vVE4S4oAZGIvklvWZQ4W0Rs4b0UpC0Rk/7QJiajTD10yOsXjvdJsRYdyXGNhLfFkDGuto1yh6Bqz+IoV6M/ulxppzUt4kz1l2Js43EtwWcsa52jLNz4OupIMPET46w2qmqqttD2Kq7EmEbiW9jhK262jHCrvGaRirECHVXGHuvCFutth02NsJWrKMSVWsKbh08xTrZCZK+OsbSG7gQ2D5ZHRSgJJK3tspG1g4H057tH9XfH6CibEVXr/OjKbkXhfRCBYDfqOeDOWLs0nmABl3VvJn0rm5bl73OpP2tN9TkFYkJfAye/WbPftQtiMQzg4uVjCJaIvW07+CFjI1lEf6uyTEWsnm67F2lsnIJbSARW0kbWtlk6OEgY+yhA20/e3B1k8GZLoaD0auqCHeKD6S58wgk35HmwJjpNrYKCTmTxd/SeKxl8/ienF2WXefzdFk9bOTm6N5Lz546UqiqhAVciZbr3FOQY3BWIVUkVBrdJr+ZtC6H31rRcrGRhEeyyEjkXXKxo0bYURPZUVPYUbPYUQuzEywL8PxEyoQBQloib5PW7UUWe0HrokySmCrg8D78PeybkkWGzrvjVjIvuH4+FiIbUQEDqBXeyxN46LJSkY3uZbffvRqnSMV2TCAFbaXVSDlkQmfBvNq4EkHsASVZZdetcW+QpTTSOp+8YlOLgL9pYnk4ToQicvl10J4MrpMZJONJkeZyfMe6Ed+xvgA2skTfcYU8TFacvPmcsQFLZ8dr7r82tXQiP3O7dSw/voYXlO4q5vl5u6WEjcypLxqFfRNqVSHyCL4FKaFHctihVBMCjFp1f7FErbF+MBEXRsEvZLo55TW19tJ1sT+LmlpQuitTm7f2YWpolHD6sQ1TaySFsh/E0uKy2LulDZ0nkgHOmxQp25WV3aUEnW+xcHMnRJr5lluqhymm+EkWW+4491hde7Ul3ssWbV9+7YtfJA0UTQyNGXBfyVbbPA8ud74bklUw60j9YgWfilQ/I4dzraYmBmuZ2QhiKJW9qxqLdLI3h6IxR/YytzAXT1vD42MIIXVJnC4nR8cylyaJ7OZRhxZeJcCPHu2eWH2ZQFkmUJYJlGUCZZlA+fE2xcsEyvezJV4mUP6aCCsTKN8TxsoEyl8VZ2UC5XvCWZlA+ashrEygfE8IKxMoywTKMoGyTKAsEyjLBMoygbJMoCwTKMsEyjKBskygLBMoywTKMoGyTKAsEyjLBMoygbJMoHzr+KNMoCwTKD9tAiXLkUS/iumT7KzT+Cmg4tm7GScqd+cL/4UkG4arGcVOT+72h4PRhP4scnoyGTg0xcTzk2U+BzLzcGMl7XBjde+HGw8WbefceR5MR45lATfhiGNKyDjkmKsg/WbotmTQQ8ElNJZEifQE7N/XgX9k+LhXSSBnuYaE6hunwkb7FPSZfOxxRGTIPPKL8PePe2KymphYK0bAR+scevtxXAin6Q2diJrmRGpv50S+wmdgEkNlcw/RmVjQz3IliCz1U2CAaRv4kdXICV5EJGb6ELHy5h6E61FQZYr/YA2o98gntQ/sOmq5XMfxeudlE7OmVzSsTJpYMhZe0hcRy1SR/jGf/zPDjH/DR/7fA2QfErQ9hAVgol98R9I5hWWaMq5mhBds4KeJUp0oaQYcIb5mwIVtN52ZmPP5qH/5US30lx930PRnYm4HLtvZktP8/WxBxzgL44DNsuvjPeVdZqh+7nWGuODWWWeI97KTtI5vABumgB1a+LnBszXslNBZz+i3gpzt3wSirjOzGenzhQXuZgBYY/QC/KUgIkkjH65UJ0ChmfamMj+F+lCxGJtFbxiJ1dIisfpGkRjhMR6HvT9h3thLD5hkeHHgLInKwm1g17oJl16CldWVYB+fXrg3mE494KdZfesZevz3Iay2B1ceYybnbh1ywVU1LSlVPTypn6qNRkNN8LvHjcOTRv24dqQqvK8VhNAM7mETbitc+w7DEUCRgJl9i2FYh7v9roNCXwNnMmzhLkORh4SYKLFGsfsMwz42ifVFRj70nYaF9FrM/4zwzYaj4jcbRuW787sNw+F2cbvhyRss3uHlOks3wMyxzMQtgMsX+xm8pBxzcfnj6s/ujy654bCjSsOZ7olX4OYEsRyOEwezQMpa3mDWKOO8X3k4Wj2jProvYAvX6KYzLmrzl7v28CTPUlxNiU9Yi8wL0ecUu0XdWrmWfniNJk2pxn6HJHazGl4xZ9PpjyfkXwFHw4ba6R6gstmscZebgP09bgIKCIswkLYN2N/zNmAmj6JSs3YC+59rJ1Cp53Ii1c+wFVhGSkUjpbRAqXF4dHrSUJRqPWmBqqEcHldP68dqfQeB0sontAHGieA9hcKI4+SmzLSadMAw70kjnLfkkW8dVkPLMIDnOS4E3hoRE+Mi7j2jlLwRUvyl1/ekrIcPHRqtqcpiLudicNWekB9FHA7lZ+eh0Ri4qHQnkdHp3mdFwxkkShPAfO0EGXBRYgTUqKlErdE1Wb0CGJXZGHSdNqGDKCsJ1TJnP6vqMuJUZpxuDuAUxgVFpsREEgUYMFu+rxszPNBZ5WDPRwluc5pzmitr4SQ+y+l5TBQhKMMCjfMcZLfIWj48ALPjYkzSv8ZE3eHvWs9sIu2S3oNHTCEVRwtgwGnwt6KsUpyC4BLvvcgEK46DYs5u+K03mpAfRZxdFKHbnGBVi0yvQisOP5lEYfRDEPwf22IqXU7pckqXI7qcECvsd+8VLsZPznhGTjB6jZVIzZz8ZA+dc9yig6ZEJvFifFQxXo8YAd9H0PIkfi6GHAXNPKxILbzB7vVR6AbplI5NtLGOuVT/5i2e1Rn4EFu+VFtBkewhB6uqmiyUa3yqI/WAkWUTj/6JxSqYYK6D6Pv/u9RXv2COAAA=

[PSD]
ActualTwoTheta=9999
FirstUsedChannel=0
FixedPSD=0
PSDOpening=4.99171
PSDType=5

[Drive]
DriveFlags=1
DriveName=2Theta
DriveNumber=2
DriveOffset=0
OffsetIndex=0
OscillationAmplitude=0
OscillationSpeed=0
StartPosition=40.0015

[Drive]
DriveFlags=1
DriveName=Theta
DriveNumber=1
DriveOffset=0
OffsetIndex=0
OscillationAmplitude=0
OscillationSpeed=0
StartPosition=20.0007

[Drive]
DriveFlags=1
DriveName=Phi
DriveNumber=3
DriveOffset=0
OffsetIndex=0
OscillationAmplitude=0
OscillationSpeed=0
StartPosition=0

[Data]
     Angle,       PSD,
   40.0015,       628,
   40.0217,       627,
   40.0418,       635,
    40.062,       643,
   40.0822,       658,
   40.1023,       646,
   40.1225,       638,
   40.1427,       670,
   40.1628,       683,
    40.183,       664,
   40.2032,       652,
   40.2233,       631,
   40.2435,       640,
   40.2637,       702,
   40.2838,       650,
    40.304,       613,
   40.3242,       660,
   40.3444,       648,
   40.3645,       619,
   40.3847,       649,
   40.4049,       648,
    40.425,       664,
   40.4452,       630,
   40.4654,       670,
   40.4855,       622,
   40.5057,       610,
   40.5259,       642,
    40.546,       647,
   40.5662,       626,
   40.5864,       683,
   40.6065,       652,
   40.6267,       673,
   40.6469,       670,
   40.6671,       620,
   40.6872,       649,
   40.7074,       634,
   40.7276,       689,
   40.7477,       671,
   40.7679,       677,
   40.7881,       644,
   40.8082,       606,
   40.8284,       672,
   40.8486,       674,
   40.8687,       669,
   40.8889,       668,
   40.9091,       664,
   40.9292,       724,
   40.9494,       704,
   40.9696,       680,
   40.9897,       683,
   41.0099,       641,
   41.0301,       668,
   41.0503,       702,
   41.0704,       655,
   41.0906,       670,
   41.1108,       662,
   41.1309,       672,
   41.1511,       716,
   41.1713,       703,
   41.1914,       690,
   41.2116,       615,
   41.2318,       638,
   41.2519,       700,
   41.2721,       721,
   41.2923,       670,
   41.3124,       676,
   41.3326,       695,
   41.3528,       646,
   41.3729,       690,
   41.3931,       670,
   41.4133,       668,
   41.4335,       679,
   41.4536,       667,
   41.4738,       685,
    41.494,       673,
   41.5141,       720,
   41.5343,       748,
   41.5545,       685,
   41.5746,       748,
   41.5948,       735,
    41.615,       663,
   41.6351,       692,
   41.6553,       737,
   41.6755,       744,
   41.6956,       782,
   41.7158,       784,
    41.736,       748,
   41.7562,       740,
   41.7763,       798,
   41.7965,       800,
   41.8167,       764,
   41.8368,       744,
    41.857,       772,
   41.8772,       784,
   41.8973,       758,
   41.9175,       801,
   41.9377,       762,
   41.9578,       835,
    41.978,       820,
   41.9982,       777,
   42.0183,       810,
   42.0385,       779,
   42.0587,       853,
   42.0788,       786,
    42.099,       826,
   42.1192,       865,
   42.1394,       891,
   42.1595,       852,
   42.1797,       796,
   42.1999,       859,
     42.22,       903,
   42.2402,       848,
   42.2604,       864,
   42.2805,       890,
   42.3007,       949,
   42.3209,       899,
    42.341,       890,
   42.3612,       939,
   42.3814,       853,
   42.4015,       938,
   42.4217,      1007,
   42.4419,       927,
    42.462,       978,
   42.4822,       922,
   42.5024,      1034,
   42.5226,      1005,
   42.5427,      1100,
   42.5629,      1009,
   42.5831,       997,
   42.6032,      1061,
   42.6234,      1050,
   42.6436,      1110,
   42.6637,      1104,
   42.6839,      1144,
   42.7041,      1141,
   42.7242,      1255,
   42.7444,      1242,
   42.7646,      1294,
   42.7847,      1388,
   42.8049,      1391,
   42.8251,      1461,
   42.8453,      1537,
   42.8654,      1636,
   42.8856,      1771,
   42.9058,      1853,
   42.9259,      1915,
   42.9461,      2079,
   42.9663,      2260,
   42.9864,      2390,
   43.0066,      2644,
   43.0268,      2917,
   43.0469,      3199,
   43.0671,      3631,
   43.0873,      3976,
   43.1074,      4489,
   43.1276,      5152,
   43.1478,      6029,
   43.1679,      7011,
   43.1881,      8202,
   43.2083,      9753,
   43.2285,     11658,
   43.2486,     13947,
   43.2688,     17436,
    43.289,     21815,
   43.3091,     22805,
   43.3293,     18947,
   43.3495,     16374,
   43.3696,     15482,
   43.3898,     15679,
     43.41,     16491,
   43.4301,     14313,
   43.4503,     11375,
   43.4705,      9324,
   43.4906,      7975,
   43.5108,      6663,
    43.531,      5803,
   43.5511,      5125,
   43.5713,      4540,
   43.5915,      4007,
   43.6117,      3639,
   43.6318,      3140,
    43.652,      2842,
   43.6722,      2633,
   43.6923,      2440,
   43.7125,      2183,
   43.7327,      2135,
   43.7528,      2000,
    43.773,      1930,
   43.7932,      1714,
   43.8133,      1615,
   43.8335,      1552,
   43.8537,      1449,
   43.8738,      1415,
    43.894,      1367,
   43.9142,      1380,
   43.9344,      1320,
   43.9545,      1208,
   43.9747,      1271,
   43.9949,      1193,
    44.015,      1170,
   44.0352,      1125,
   44.0554,      1152,
   44.0755,      1078,
   44.0957,      1133,
   44.1159,      1001,
    44.136,      1050,
   44.1562,      1043,
   44.1764,      1026,
   44.1965,      1004,
   44.2167,       983,
   44.2369,       969,
    44.257,      1008,
   44.2772,      1006,
   44.2974,       952,
   44.3176,       944,
   44.3377,       896,
   44.3579,       900,
   44.3781,       923,
   44.3982,       867,
   44.4184,       894,
   44.4386,       905,
   44.4587,       895,
   44.4789,       861,
   44.4991,       881,
   44.5192,       851,
   44.5394,       800,
   44.5596,       883,
   44.5797,       873,
   44.5999,       828,
   44.6201,       836,
   44.6402,       838,
   44.6604,       816,
   44.6806,       865,
   44.7008,       890,
   44.7209,       807,
   44.7411,       777,
   44.7613,       865,
   44.7814,       807,
   44.8016,       834,
   44.8218,       834,
   44.8419,       798,
   44.8621,       782,
   44.8823,       767,
   44.9024,       819,
   44.9226,       774,
   44.9428,       812,
   44.9629,       767,
   44.9831,       774,
   45.0033,       787,
   45.0235,       805,
   45.0436,       742,
   45.0638,       745,
    45.084,       794,
   45.1041,       810,
   45.1243,       786,
   45.1445,       788,
   45.1646,       771,
   45.1848,       838,
    45.205,       782,
   45.2251,       823,
   45.2453,       755,
   45.2655,       748,
   45.2856,       763,
   45.3058,       767,
    45.326,       787,
   45.3461,       738,
   45.3663,       777,
   45.3865,       755,
   45.4067,       739,
   45.4268,       765,
    45.447,       736,
   45.4672,       732,
   45.4873,       751,
   45.5075,       747,
   45.5277,       747,
   45.5478,       764,
    45.568,       711,
   45.5882,       706,
   45.6083,       726,
   45.6285,       754,
   45.6487,       765,
   45.6688,       736,
    45.689,       752,
   45.7092,       712,
   45.7294,       794,
   45.7495,       753,
   45.7697,       748,
   45.7899,       734,
     45.81,       775,
   45.8302,       706,
   45.8504,       733,
   45.8705,       758,
   45.8907,       744,
   45.9109,       715,
    45.931,       686,
   45.9512,       757,
   45.9714,       716,
   45.9915,       723,
   46.0117,       718,
   46.0319,       677,
    46.052,       708,
   46.0722,       733,
   46.0924,       803,
   46.1126,       724,
   46.1327,       773,
   46.1529,       722,
   46.1731,       734,
   46.1932,       722,
   46.2134,       700,
   46.2336,       705,
   46.2537,       716,
   46.2739,       711,
   46.2941,       757,
   46.3142,       730,
   46.3344,       732,
   46.3546,       747,
   46.3747,       746,
   46.3949,       711,
   46.4151,       702,
   46.4352,       754,
   46.4554,       734,
   46.4756,       715,
   46.4958,       680,
   46.5159,       690,
   46.5361,       722,
   46.5563,       690,
   46.5764,       692,
   46.5966,       741,
   46.6168,       701,
   46.6369,       746,
   46.6571,       723,
   46.6773,       675,
   46.6974,       730,
   46.7176,       689,
   46.7378,       700,
   46.7579,       722,
   46.7781,       710,
   46.7983,       695,
   46.8185,       670,
   46.8386,       732,
   46.8588,       714,
    46.879,       723,
   46.8991,       737,
   46.9193,       643,
   46.9395,       678,
   46.9596,       746,
   46.9798,       699,
        47,       732,
   47.0201,       691,
   47.0403,       738,
   47.0605,       714,
   47.0806,       712,
   47.1008,       721,
    47.121,       676,
   47.1411,       724,
   47.1613,       728,
   47.1815,       741,
   47.2017,       720,
   47.2218,       733,
    47.242,       717,
   47.2622,       668,
   47.2823,       722,
   47.3025,       699,
   47.3227,       703,
   47.3428,       705,
    47.363,       694,
   47.3832,       682,
   47.4033,       728,
   47.4235,       733,
   47.4437,       688,
   47.4638,       706,
    47.484,       714,
   47.5042,       694,
   47.5243,       738,
   47.5445,       720,
   47.5647,       698,
   47.5849,       681,
    47.605,       690,
   47.6252,       737,
   47.6454,       727,
   47.6655,       696,
   47.6857,       705,
   47.7059,       741,
    47.726,       749,
   47.7462,       706,
   47.7664,       702,
   47.7865,       692,
   47.8067,       709,
   47.8269,       699,
    47.847,       689,
   47.8672,       698,
   47.8874,       703,
   47.9076,       713,
   47.9277,       726,
   47.9479,       723,
   47.9681,       687,
   47.9882,       728,
   48.0084,       705,
   48.0286,       680,
   48.0487,       706,
   48.0689,       734,
   48.0891,       717,
   48.1092,       704,
   48.1294,       726,
   48.1496,       748,
   48.1697,       740,
   48.1899,       678,
   48.2101,       738,
   48.2302,       706,
   48.2504,       733,
   48.2706,       696,
   48.2908,       769,
   48.3109,       687,
   48.3311,       739,
   48.3513,       708,
   48.3714,       758,
   48.3916,       795,
   48.4118,       704,
   48.4319,       711,
   48.4521,       736,
   48.4723,       728,
   48.4924,       760,
   48.5126,       712,
   48.5328,       721,
   48.5529,       738,
   48.5731,       787,
   48.5933,       825,
   48.6134,       722,
   48.6336,       773,
   48.6538,       756,
    48.674,       704,
   48.6941,       747,
   48.7143,       754,
   48.7345,       717,
   48.7546,       737,
   48.7748,       749,
    48.795,       727,
   48.8151,       764,
   48.8353,       764,
   48.8555,       781,
   48.8756,       776,
   48.8958,       782,
    48.916,       755,
   48.9361,       775,
   48.9563,       759,
   48.9765,       778,
   48.9967,       757,
   49.0168,       811,
    49.037,       806,
   49.0572,       756,
   49.0773,       741,
   49.0975,       781,
   49.1177,       764,
   49.1378,       805,
    49.158,       723,
   49.1782,       804,
   49.1983,       786,
   49.2185,       821,
   49.2387,       812,
   49.2588,       850,
    49.279,       872,
   49.2992,       779,
   49.3193,       779,
   49.3395,       813,
   49.3597,       864,
   49.3799,       831,
      49.4,       821,
   49.4202,       835,
   49.4404,       875,
   49.4605,       916,
   49.4807,       910,
   49.5009,       852,
    49.521,       906,
   49.5412,       893,
   49.5614,       918,
   49.5815,       922,
   49.6017,       946,
   49.6219,       924,
    49.642,       949,
   49.6622,      1017,
   49.6824,       987,
   49.7025,      1034,
   49.7227,       951,
   49.7429,       972,
   49.7631,      1042,
   49.7832,      1054,
   49.8034,      1063,
   49.8236,      1076,
   49.8437,      1107,
   49.8639,      1202,
   49.8841,      1253,
   49.9042,      1265,
   49.9244,      1306,
   49.9446,      1356,
   49.9647,      1378,
   49.9849,      1478,
   50.0051,      1500,
   50.0252,      1541,
   50.0454,      1675,
   50.0656,      1745,
   50.0858,      1833,
   50.1059,      1943,
   50.1261,      2041,
   50.1463,      2106,
   50.1664,      2317,
   50.1866,      2283,
   50.2068,      2458,
   50.2269,      2511,
   50.2471,      2845,
   50.2673,      3064,
   50.2874,      3104,
   50.3076,      3347,
   50.3278,      3546,
   50.3479,      3730,
   50.3681,      4018,
   50.3883,      4615,
   50.4084,      5165,
   50.4286,      5589,
   50.4488,      5128,
    50.469,      4750,
   50.4891,      4286,
   50.5093,      4247,
   50.5295,      4104,
   50.5496,      4214,
   50.5698,      4175,
     50.59,      3799,
   50.6101,      3348,
   50.6303,      3126,
   50.6505,      2856,
   50.6706,      2694,
   50.6908,      2599,
    50.711,      2388,
   50.7311,      2322,
   50.7513,      2151,
   50.7715,      2015,
   50.7917,      1898,
   50.8118,      1750,
    50.832,      1673,
   50.8522,      1569,
   50.8723,      1542,
   50.8925,      1566,
   50.9127,      1398,
   50.9328,      1293,
    50.953,      1258,
   50.9732,      1294,
   50.9933,      1179,
   51.0135,      1109,
   51.0337,      1148,
   51.0538,      1074,
    51.074,      1056,
   51.0942,      1039,
   51.1143,       988,
   51.1345,       966,
   51.1547,       938,
   51.1749,       997,
    51.195,       963,
   51.2152,       886,
   51.2354,       899,
   51.2555,       880,
   51.2757,       827,
   51.2959,       872,
    51.316,       858,
   51.3362,       890,
   51.3564,       850,
   51.3765,       783,
   51.3967,       830,
   51.4169,       794,
    51.437,       750,
   51.4572,       812,
   51.4774,       807,
   51.4975,       751,
   51.5177,       790,
   51.5379,       752,
   51.5581,       728,
   51.5782,       717,
   51.5984,       791,
   51.6186,       788,
   51.6387,       742,
   51.6589,       740,
   51.6791,       694,
   51.6992,       773,
   51.7194,       718,
   51.7396,       721,
   51.7597,       806,
   51.7799,       721,
   51.8001,       704,
   51.8202,       715,
   51.8404,       725,
   51.8606,       718,
   51.8808,       676,
   51.9009,       682,
   51.9211,       698,
   51.9413,       713,
   51.9614,       679,
   51.9816,       715,
   52.0018,       674,
   52.0219,       736,
   52.0421,       669,
   52.0623,       698,
   52.0824,       691,
   52.1026,       682,
   52.1228,       711,
   52.1429,       707,
   52.1631,       716,
   52.1833,       735,
   52.2034,       664,
   52.2236,       654,
   52.2438,       681,
    52.264,       720,
   52.2841,       673,
   52.3043,       689,
   52.3245,       632,
   52.3446,       701,
   52.3648,       691,
    52.385,       715,
   52.4051,       705,
   52.4253,       693,
   52.4455,       704,
   52.4656,       683,
   52.4858,       713,
    52.506,       697,
   52.5261,       655,
   52.5463,       695,
   52.5665,       632,
   52.5866,       688,
   52.6068,       686,
    52.627,       684,
   52.6472,       677,
   52.6673,       686,
   52.6875,       677,
   52.7077,       673,
   52.7278,       697,
    52.748,       673,
   52.7682,       659,
   52.7883,       616,
   52.8085,       637,
   52.8287,       666,
   52.8488,       687,
    52.869,       668,
   52.8892,       671,
   52.9093,       613,
   52.9295,       683,
   52.9497,       653,
   52.9699,       644,
     52.99,       692,
   53.0102,       663,
   53.0304,       699,
   53.0505,       678,
   53.0707,       629,
   53.0909,       640,
    53.111,       618,
   53.1312,       670,
   53.1514,       652,
   53.1715,       621,
   53.1917,       656,
   53.2119,       675,
    53.232,       655,
   53.2522,       688,
   53.2724,       618,
   53.2925,       646,
   53.3127,       666,
   53.3329,       660,
   53.3531,       668,
   53.3732,       699,
   53.3934,       682,
   53.4136,       632,
   53.4337,       683,
   53.4539,       676,
   53.4741,       643,
   53.4942,       655,
   53.5144,       613,
   53.5346,       677,
   53.5547,       619,
   53.5749,       646,
   53.5951,       621,
   53.6152,       662,
   53.6354,       621,
   53.6556,       647,
   53.6757,       682,
   53.6959,       662,
   53.7161,       605,
   53.7363,       631,
   53.7564,       635,
   53.7766,       641,
   53.7968,       652,
   53.8169,       653,
   53.8371,       662,
   53.8573,       622,
   53.8774,       679,
   53.8976,       666,
   53.9178,       641,
   53.9379,       683,
   53.9581,       677,
   53.9783,       656,
   53.9984,       698,
   54.0186,       655,
   54.0388,       633,
    54.059,       604,
   54.0791,       646,
   54.0993,       659,
   54.1195,       658,
   54.1396,       629,
   54.1598,       634,
     54.18,       639,
   54.2001,       651,
   54.2203,       593,
   54.2405,       643,
   54.2606,       617,
   54.2808,       685,
    54.301,       623,
   54.3211,       625,
   54.3413,       631,
   54.3615,       631,
   54.3816,       628,
   54.4018,       663,
    54.422,       610,
   54.4422,       667,
   54.4623,       666,
   54.4825,       668,
   54.5027,       635,
   54.5228,       611,
    54.543,       599,
   54.5632,       653,
   54.5833,       604,
   54.6035,       633,
   54.6237,       652,
   54.6438,       685,
    54.664,       621,
   54.6842,       641,
   54.7043,       603,
   54.7245,       660,
   54.7447,       599,
   54.7648,       637,
    54.785,       630,
   54.8052,       642,
   54.8254,       717,
   54.8455,       667,
   54.8657,       685,
   54.8859,       619,
    54.906,       672,
   54.9262,       635,
   54.9464,       629,
   54.9665,       664,
   54.9867,       675,
   55.0069,       673,
    55.027,       650,
   55.0472,       627,
   55.0674,       632,
   55.0875,       668,
   55.1077,       647,
   55.1279,       655,
   55.1481,       636,
   55.1682,       590,
   55.1884,       666,
   55.2086,       655,
   55.2287,       620,
   55.2489,       618,
   55.2691,       666,
   55.2892,       659,
   55.3094,       635,
   55.3296,       623,
   55.3497,       654,
   55.3699,       690,
   55.3901,       608,
   55.4102,       624,
   55.4304,       648,
   55.4506,       660,
   55.4707,       642,
   55.4909,       622,
   55.5111,       620,
   55.5313,       651,
   55.5514,       663,
   55.5716,       607,
   55.5918,       642,
   55.6119,       615,
   55.6321,       625,
   55.6523,       636,
   55.6724,       664,
   55.6926,       600,
   55.7128,       647,
   55.7329,       631,
   55.7531,       623,
   55.7733,       664,
   55.7934,       626,
   55.8136,       624,
   55.8338,       649,
    55.854,       609,
   55.8741,       639,
   55.8943,       664,
   55.9145,       677,
   55.9346,       642,
   55.9548,       631,
    55.975,       640,
   55.9951,       623,
   56.0153,       631,
   56.0355,       626,
   56.0556,       592,
   56.0758,       637,
    56.096,       580,
   56.1161,       605,
   56.1363,       631,
   56.1565,       625,
   56.1766,       648,
   56.1968,       618,
    56.217,       685,
   56.2372,       613,
   56.2573,       669,
   56.2775,       619,
   56.2977,       594,
   56.3178,       596,
    56.338,       664,
   56.3582,       605,
   56.3783,       642,
   56.3985,       616,
   56.4187,       632,
   56.4388,       638,
    56.459,       627,
   56.4792,       667,
   56.4993,       665,
   56.5195,       608,
   56.5397,       607,
   56.5598,       617,
     56.58,       607,
   56.6002,       612,
   56.6204,       601,
   56.6405,       630,
   56.6607,       640,
   56.6809,       634,
    56.701,       633,
   56.7212,       639,
   56.7414,       626,
   56.7615,       670,
   56.7817,       675,
   56.8019,       634,
    56.822,       613,
   56.8422,       600,
   56.8624,       604,
   56.8825,       611,
   56.9027,       627,
   56.9229,       637,
   56.9431,       584,
   56.9632,       616,
   56.9834,       638,
   57.0036,       620,
   57.0237,       648,
   57.0439,       628,
   57.0641,       620,
   57.0842,       619,
   57.1044,       632,
   57.1246,       605,
   57.1447,       620,
   57.1649,       609,
   57.1851,       626,
   57.2052,       604,
   57.2254,       608,
   57.2456,       610,
   57.2657,       654,
   57.2859,       585,
   57.3061,       658,
   57.3263,       641,
   57.3464,       616,
   57.3666,       627,
   57.3868,       625,
   57.4069,       639,
   57.4271,       613,
   57.4473,       571,
   57.4674,       671,
   57.4876,       643,
   57.5078,       642,
   57.5279,       628,
   57.5481,       633,
   57.5683,       551,
   57.5884,       606,
   57.6086,       623,
   57.6288,       650,
   57.6489,       605,
   57.6691,       567,
   57.6893,       659,
   57.7095,       636,
   57.7296,       614,
   57.7498,       626,
     57.77,       573,
   57.7901,       640,
   57.8103,       648,
   57.8305,       612,
   57.8506,       641,
   57.8708,       609,
    57.891,       571,
   57.9111,       652,
   57.9313,       636,
   57.9515,       635,
   57.9716,       631,
   57.9918,       589,
    58.012,       639,
   58.0322,       631,
   58.0523,       598,
   58.0725,       623,
   58.0927,       641,
   58.1128,       626,
    58.133,       623,
   58.1532,       640,
   58.1733,       639,
   58.1935,       573,
   58.2137,       590,
   58.2338,       606,
    58.254,       647,
   58.2742,       635,
   58.2943,       629,
   58.3145,       644,
   58.3347,       629,
   58.3548,       602,
    58.375,       632,
   58.3952,       600,
   58.4154,       626,
   58.4355,       642,
   58.4557,       581,
   58.4759,       682,
    58.496,       640,
   58.5162,       626,
   58.5364,       612,
   58.5565,       581,
   58.5767,       631,
   58.5969,       642,
    58.617,       646,
   58.6372,       613,
   58.6574,       609,
   58.6775,       605,
   58.6977,       660,
   58.7179,       600,
    58.738,       618,
   58.7582,       623,
   58.7784,       614,
   58.7986,       629,
   58.8187,       605,
   58.8389,       600,
   58.8591,       621,
   58.8792,       631,
   58.8994,       642,
   58.9196,       665,
   58.9397,       634,
   58.9599,       639,
   58.9801,       639,
   59.0002,       626,
   59.0204,       635,
   59.0406,       617,
   59.0607,       636,
   59.0809,       602,
   59.1011,       559,
   59.1213,       610,
   59.1414,       638,
   59.1616,       594,
   59.1818,       632,
   59.2019,       644,
   59.2221,       654,
   59.2423,       598,
   59.2624,       602,
   59.2826,       583,
   59.3028,       620,
   59.3229,       610,
   59.3431,       603,
   59.3633,       593,
   59.3834,       645,
   59.4036,       593,
   59.4238,       606,
   59.4439,       605,
   59.4641,       667,
   59.4843,       640,
   59.5045,       650,
   59.5246,       616,
   59.5448,       629,
    59.565,       627,
   59.5851,       643,
   59.6053,       607,
   59.6255,       682,
   59.6456,       629,
   59.6658,       633,
    59.686,       623,
   59.7061,       572,
   59.7263,       602,
   59.7465,       610,
   59.7666,       618,
   59.7868,       589,
    59.807,       634,
   59.8271,       613,
   59.8473,       646,
   59.8675,       628,
   59.8877,       569,
   59.9078,       625,
    59.928,       649,
   59.9482,       597,
   59.9683,       617,
   59.9885,       620,
   60.0087,       629,
   60.0288,       628,
    60.049,       665,
   60.0692,       592,
   60.0893,       647,
   60.1095,       597,
   60.1297,       565,
   60.1498,       650,
     60.17,       594,
   60.1902,       596,
   60.2104,       604,
   60.2305,       645,
   60.2507,       569,
   60.2709,       611,
    60.291,       609,
   60.3112,       586,
   60.3314,       613,
   60.3515,       613,
   60.3717,       572,
   60.3919,       575,
    60.412,       666,
   60.4322,       583,
   60.4524,       655,
   60.4725,       618,
   60.4927,       605,
   60.5129,       595,
    60.533,       590,
   60.5532,       613,
   60.5734,       607,
   60.5936,       651,
   60.6137,       605,
   60.6339,       619,
   60.6541,       613,
   60.6742,       619,
   60.6944,       581,
   60.7146,       607,
   60.7347,       587,
   60.7549,       606,
   60.7751,       572,
   60.7952,       615,
   60.8154,       581,
   60.8356,       606,
   60.8557,       605,
   60.8759,       617,
   60.8961,       639,
   60.9163,       659,
   60.9364,       629,
   60.9566,       628,
   60.9768,       649,
   60.9969,       595,
   61.0171,       581,
   61.0373,       627,
   61.0574,       616,
   61.0776,       643,
   61.0978,       609,
   61.1179,       606,
   61.1381,       617,
   61.1583,       626,
   61.1784,       613,
   61.1986,       600,
   61.2188,       577,
   61.2389,       581,
   61.2591,       611,
   61.2793,       622,
   61.2995,       599,
   61.3196,       607,
   61.3398,       579,
     61.36,       669,
   61.3801,       605,
   61.4003,       616,
   61.4205,       607,
   61.4406,       579,
   61.4608,       599,
    61.481,       591,
   61.5011,       605,
   61.5213,       647,
   61.5415,       639,
   61.5616,       627,
   61.5818,       610,
    61.602,       638,
   61.6221,       607,
   61.6423,       618,
   61.6625,       639,
   61.6827,       606,
   61.7028,       606,
    61.723,       608,
   61.7432,       626,
   61.7633,       595,
   61.7835,       629,
   61.8037,       614,
   61.8238,       573,
    61.844,       608,
   61.8642,       594,
   61.8843,       600,
   61.9045,       635,
   61.9247,       598,
   61.9448,       585,
    61.965,       640,
   61.9852,       586,
   62.0054,       610,
   62.0255,       560,
   62.0457,       616,
   62.0659,       575,
    62.086,       572,
   62.1062,       604,
   62.1264,       630,
   62.1465,       622,
   62.1667,       587,
   62.1869,       578,
    62.207,       594,
   62.2272,       625,
   62.2474,       598,
   62.2675,       630,
   62.2877,       555,
   62.3079,       594,
    62.328,       579,
   62.3482,       633,
   62.3684,       595,
   62.3886,       558,
   62.4087,       583,
   62.4289,       625,
   62.4491,       617,
   62.4692,       626,
   62.4894,       592,
   62.5096,       615,
   62.5297,       611,
   62.5499,       620,
   62.5701,       605,
   62.5902,       612,
   62.6104,       592,
   62.6306,       610,
   62.6507,       594,
   62.6709,       616,
   62.6911,       648,
   62.7112,       604,
   62.7314,       597,
   62.7516,       622,
   62.7718,       609,
   62.7919,       533,
   62.8121,       661,
   62.8323,       587,
   62.8524,       575,
   62.8726,       624,
   62.8928,       584,
   62.9129,       605,
   62.9331,       637,
   62.9533,       590,
   62.9734,       672,
   62.9936,       624,
   63.0138,       592,
   63.0339,       671,
   63.0541,       604,
   63.0743,       631,
   63.0945,       561,
   63.1146,       652,
   63.1348,       600,
    63.155,       614,
   63.1751,       621,
   63.1953,       619,
   63.2155,       599,
   63.2356,       615,
   63.2558,       589,
    63.276,       653,
   63.2961,       606,
   63.3163,       594,
   63.3365,       638,
   63.3566,       597,
   63.3768,       570,
    63.397,       603,
   63.4171,       598,
   63.4373,       569,
   63.4575,       597,
   63.4777,       594,
   63.4978,       608,
    63.518,       610,
   63.5382,       631,
   63.5583,       614,
   63.5785,       586,
   63.5987,       543,
   63.6188,       568,
    63.639,       624,
   63.6592,       591,
   63.6793,       558,
   63.6995,       572,
   63.7197,       617,
   63.7398,       609,
     63.76,       585,
   63.7802,       566,
   63.8003,       613,
   63.8205,       628,
   63.8407,       603,
   63.8609,       577,
    63.881,       623,
   63.9012,       592,
   63.9214,       603,
   63.9415,       593,
   63.9617,       622,
   63.9819,       590,
    64.002,       630,
   64.0222,       604,
   64.0424,       632,
   64.0625,       603,
   64.0827,       614,
   64.1029,       600,
    64.123,       629,
   64.1432,       637,
   64.1634,       636,
   64.1836,       590,
   64.2037,       595,
   64.2239,       586,
   64.2441,       600,
   64.2642,       629,
   64.2844,       605,
   64.3046,       574,
   64.3247,       599,
   64.3449,       593,
   64.3651,       607,
   64.3852,       619,
   64.4054,       623,
   64.4256,       616,
   64.4457,       644,
   64.4659,       588,
   64.4861,       541,
   64.5062,       608,
   64.5264,       619,
   64.5466,       604,
   64.5668,       606,
   64.5869,       624,
   64.6071,       578,
   64.6273,       618,
   64.6474,       634,
   64.6676,       609,
   64.6878,       615,
   64.7079,       579,
   64.7281,       639,
   64.7483,       590,
   64.7684,       612,
   64.7886,       626,
   64.8088,       622,
   64.8289,       596,
   64.8491,       594,
   64.8693,       592,
   64.8894,       601,
   64.9096,       600,
   64.9298,       559,
     64.95,       600,
   64.9701,       557,
   64.9903,       601,
   65.0105,       571,
   65.0306,       589,
   65.0508,       636,
    65.071,       606,
   65.0911,       616,
   65.1113,       580,
   65.1315,       629,
   65.1516,       617,
   65.1718,       594,
    65.192,       562,
   65.2121,       612,
   65.2323,       629,
   65.2525,       604,
   65.2727,       588,
   65.2928,       596,
    65.313,       581,
   65.3332,       617,
   65.3533,       624,
   65.3735,       614,
   65.3937,       556,
   65.4138,       611,
    65.434,       620,
   65.4542,       621,
   65.4743,       622,
   65.4945,       615,
   65.5147,       603,
   65.5348,       607,
    65.555,       584,
   65.5752,       592,
   65.5953,       612,
   65.6155,       588,
   65.6357,       570,
   65.6559,       658,
    65.676,       644,
   65.6962,       605,
   65.7164,       574,
   65.7365,       607,
   65.7567,       593,
   65.7769,       584,
    65.797,       629,
   65.8172,       574,
   65.8374,       580,
   65.8575,       602,
   65.8777,       675,
   65.8979,       595,
    65.918,       610,
   65.9382,       576,
   65.9584,       623,
   65.9786,       601,
   65.9987,       644,
   66.0189,       621,
   66.0391,       638,
   66.0592,       606,
   66.0794,       596,
   66.0996,       582,
   66.1197,       596,
   66.1399,       608,
   66.1601,       621,
   66.1802,       561,
   66.2004,       615,
   66.2206,       607,
   66.2407,       595,
   66.2609,       609,
   66.2811,       569,
   66.3012,       617,
   66.3214,       593,
   66.3416,       595,
   66.3618,       626,
   66.3819,       618,
   66.4021,       613,
   66.4223,       618,
   66.4424,       596,
   66.4626,       627,
   66.4828,       604,
   66.5029,       618,
   66.5231,       650,
   66.5433,       581,
   66.5634,       567,
   66.5836,       628,
   66.6038,       623,
   66.6239,       575,
   66.6441,       594,
   66.6643,       587,
   66.6844,       662,
   66.7046,       579,
   66.7248,       632,
    66.745,       599,
   66.7651,       603,
   66.7853,       628,
   66.8055,       608,
   66.8256,       601,
   66.8458,       609,
    66.866,       586,
   66.8861,       608,
   66.9063,       603,
   66.9265,       612,
   66.9466,       604,
   66.9668,       588,
    66.987,       596,
   67.0071,       609,
   67.0273,       630,
   67.0475,       605,
   67.0677,       596,
   67.0878,       581,
    67.108,       594,
   67.1282,       608,
   67.1483,       609,
   67.1685,       599,
   67.1887,       569,
   67.2088,       612,
    67.229,       612,
   67.2492,       569,
   67.2693,       592,
   67.2895,       574,
   67.3097,       593,
   67.3298,       590,
     67.35,       592,
   67.3702,       579,
   67.3903,       589,
   67.4105,       605,
   67.4307,       586,
   67.4509,       612,
    67.471,       605,
   67.4912,       610,
   67.5114,       594,
   67.5315,       608,
   67.5517,       588,
   67.5719,       592,
    67.592,       634,
   67.6122,       613,
   67.6324,       599,
   67.6525,       596,
   67.6727,       565,
   67.6929,       627,
    67.713,       583,
   67.7332,       611,
   67.7534,       627,
   67.7735,       615,
   67.7937,       606,
   67.8139,       568,
   67.8341,       592,
   67.8542,       651,
   67.8744,       608,
   67.8946,       604,
   67.9147,       626,
   67.9349,       612,
   67.9551,       621,
   67.9752,       580,
   67.9954,       632,
   68.0156,       633,
   68.0357,       631,
   68.0559,       620,
   68.0761,       554,
   68.0962,       601,
   68.1164,       614,
   68.1366,       592,
   68.1568,       592,
   68.1769,       603,
   68.1971,       600,
   68.2173,       626,
   68.2374,       631,
   68.2576,       635,
   68.2778,       599,
   68.2979,       605,
   68.3181,       623,
   68.3383,       628,
   68.3584,       634,
   68.3786,       562,
   68.3988,       599,
   68.4189,       595,
   68.4391,       583,
   68.4593,       544,
   68.4794,       573,
   68.4996,       602,
   68.5198,       586,
     68.54,       568,
   68.5601,       595,
   68.5803,       604,
   68.6005,       566,
   68.6206,       597,
   68.6408,       590,
    68.661,       592,
   68.6811,       615,
   68.7013,       586,
   68.7215,       583,
   68.7416,       607,
   68.7618,       650,
    68.782,       649,
   68.8021,       607,
   68.8223,       556,
   68.8425,       611,
   68.8626,       616,
   68.8828,       575,
    68.903,       606,
   68.9232,       586,
   68.9433,       591,
   68.9635,       599,
   68.9837,       578,
   69.0038,       604,
    69.024,       581,
   69.0442,       651,
   69.0643,       631,
   69.0845,       590,
   69.1047,       611,
   69.1248,       576,
    69.145,       581,
   69.1652,       599,
   69.1853,       613,
   69.2055,       565,
   69.2257,       566,
   69.2459,       568,
    69.266,       613,
   69.2862,       574,
   69.3064,       606,
   69.3265,       600,
   69.3467,       576,
   69.3669,       552,
    69.387,       591,
   69.4072,       587,
   69.4274,       592,
   69.4475,       612,
   69.4677,       608,
   69.4879,       619,
    69.508,       635,
   69.5282,       560,
   69.5484,       562,
   69.5685,       576,
   69.5887,       628,
   69.6089,       580,
   69.6291,       576,
   69.6492,       629,
   69.6694,       586,
   69.6896,       603,
   69.7097,       617,
   69.7299,       656,
   69.7501,       593,
   69.7702,       600,
   69.7904,       576,
   69.8106,       635,
   69.8307,       599,
   69.8509,       581,
   69.8711,       615,
   69.8912,       616,
   69.9114,       613,
   69.9316,       614,
   69.9517,       586,
   69.9719,       584,
   69.9921,       635,
   70.0123,       560,
   70.0324,       605,
   70.0526,       614,
   70.0728,       604,
   70.0929,       609,
   70.1131,       658,
   70.1333,       584,
   70.1534,       601,
   70.1736,       594,
   70.1938,       589,
   70.2139,       635,
   70.2341,       600,
   70.2543,       627,
   70.2744,       571,
   70.2946,       570,
   70.3148,       570,
    70.335,       577,
   70.3551,       599,
   70.3753,       606,
   70.3955,       596,
   70.4156,       570,
   70.4358,       628,
    70.456,       599,
   70.4761,       598,
   70.4963,       574,
   70.5165,       626,
   70.5366,       576,
   70.5568,       584,
    70.577,       583,
   70.5971,       550,
   70.6173,       588,
   70.6375,       541,
   70.6576,       586,
   70.6778,       635,
    70.698,       579,
   70.7182,       596,
   70.7383,       616,
   70.7585,       572,
   70.7787,       621,
   70.7988,       599,
    70.819,       618,
   70.8392,       643,
   70.8593,       599,
   70.8795,       594,
   70.8997,       572,
   70.9198,       569,
     70.94,       580,
   70.9602,       622,
   70.9803,       585,
   71.0005,       650,
   71.0207,       608,
   71.0409,       549,
    71.061,       614,
   71.0812,       619,
   71.1014,       609,
   71.1215,       632,
   71.1417,       636,
   71.1619,       622,
    71.182,       616,
   71.2022,       584,
   71.2224,       590,
   71.2425,       598,
   71.2627,       601,
   71.2829,       621,
    71.303,       561,
   71.3232,       629,
   71.3434,       650,
   71.3635,       584,
   71.3837,       610,
   71.4039,       560,
   71.4241,       606,
   71.4442,       629,
   71.4644,       622,
   71.4846,       613,
   71.5047,       626,
   71.5249,       611,
   71.5451,       616,
   71.5652,       605,
   71.5854,       628,
   71.6056,       638,
   71.6257,       554,
   71.6459,       613,
   71.6661,       600,
   71.6862,       584,
   71.7064,       601,
   71.7266,       568,
   71.7467,       589,
   71.7669,       612,
   71.7871,       581,
   71.8073,       560,
   71.8274,       641,
   71.8476,       596,
   71.8678,       620,
   71.8879,       597,
   71.9081,       655,
   71.9283,       620,
   71.9484,       620,
   71.9686,       551,
   71.9888,       626,
   72.0089,       630,
   72.0291,       598,
   72.0493,       611,
   72.0694,       612,
   72.0896,       617,
   72.1098,       630,
     72.13,       639,
   72.1501,       617,
   72.1703,       608,
   72.1905,       628,
   72.2106,       607,
   72.2308,       620,
    72.251,       571,
   72.2711,       639,
   72.2913,       602,
   72.3115,       638,
   72.3316,       613,
   72.3518,       657,
    72.372,       658,
   72.3921,       568,
   72.4123,       611,
   72.4325,       605,
   72.4526,       612,
   72.4728,       614,
    72.493,       636,
   72.5132,       618,
   72.5333,       600,
   72.5535,       634,
   72.5737,       673,
   72.5938,       601,
    72.614,       543,
   72.6342,       621,
   72.6543,       616,
   72.6745,       627,
   72.6947,       618,
   72.7148,       619,
    72.735,       590,
   72.7552,       645,
   72.7753,       628,
   72.7955,       614,
   72.8157,       649,
   72.8358,       627,
    72.856,       647,
   72.8762,       640,
   72.8964,       613,
   72.9165,       639,
   72.9367,       651,
   72.9569,       598,
    72.977,       672,
   72.9972,       618,
   73.0174,       628,
   73.0375,       630,
   73.0577,       623,
   73.0779,       634,
    73.098,       654,
   73.1182,       692,
   73.1384,       616,
   73.1585,       667,
   73.1787,       658,
   73.1989,       645,
   73.2191,       664,
   73.2392,       668,
   73.2594,       618,
   73.2796,       696,
   73.2997,       676,
   73.3199,       664,
   73.3401,       682,
   73.3602,       700,
   73.3804,       671,
   73.4006,       679,
   73.4207,       688,
   73.4409,       663,
   73.4611,       716,
   73.4812,       729,
   73.5014,       683,
   73.5216,       692,
   73.5417,       708,
   73.5619,       727,
   73.5821,       770,
   73.6023,       787,
   73.6224,       833,
   73.6426,       758,
   73.6628,       794,
   73.6829,       819,
   73.7031,       824,
   73.7233,       901,
   73.7434,       865,
   73.7636,       880,
   73.7838,       988,
   73.8039,       929,
   73.8241,       983,
   73.8443,      1042,
   73.8644,       987,
   73.8846,      1032,
   73.9048,      1099,
   73.9249,      1149,
   73.9451,      1203,
   73.9653,      1242,
   73.9855,      1402,
   74.0056,      1477,
   74.0258,      1515,
    74.046,      1893,
   74.0661,      2270,
   74.0863,      2913,
   74.1065,      3281,
   74.1266,      3034,
   74.1468,      2373,
    74.167,      1919,
   74.1871,      1741,
   74.2073,      1529,
   74.2275,      1491,
   74.2476,      1586,
   74.2678,      1720,
    74.288,      1927,
   74.3082,      2121,
   74.3283,      2122,
   74.3485,      1888,
   74.3687,      1652,
   74.3888,      1425,
    74.409,      1298,
   74.4292,      1176,
   74.4493,      1119,
   74.4695,      1051,
   74.4897,      1012,
   74.5098,       963,
     74.53,       940,
   74.5502,       938,
   74.5703,       902,
   74.5905,       831,
   74.6107,       851,
   74.6308,       844,
    74.651,       844,
   74.6712,       820,
   74.6914,       750,
   74.7115,       786,
   74.7317,       737,
   74.7519,       708,
    74.772,       736,
   74.7922,       695,
   74.8124,       723,
   74.8325,       719,
   74.8527,       691,
   74.8729,       645,
    74.893,       723,
   74.9132,       709,
   74.9334,       670,
   74.9535,       686,
   74.9737,       680,
   74.9939,       644,
    75.014,       668,
   75.0342,       594,
   75.0544,       621,
   75.0746,       662,
   75.0947,       690,
   75.1149,       654,
   75.1351,       656,
   75.1552,       655,
   75.1754,       635,
   75.1956,       620,
   75.2157,       644,
   75.2359,       643,
   75.2561,       611,
   75.2762,       663,
   75.2964,       617,
   75.3166,       678,
   75.3367,       628,
   75.3569,       607,
   75.3771,       610,
   75.3973,       618,
   75.4174,       615,
   75.4376,       633,
   75.4578,       680,
   75.4779,       608,
   75.4981,       624,
   75.5183,       630,
   75.5384,       625,
   75.5586,       594,
   75.5788,       635,
   75.5989,       612,
   75.6191,       618,
   75.6393,       646,
   75.6594,       591,
   75.6796,       590,
   75.6998,       606,
   75.7199,       643,
   75.7401,       642,
   75.7603,       651,
   75.7805,       648,
   75.8006,       599,
   75.8208,       634,
    75.841,       620,
   75.8611,       599,
   75.8813,       600,
   75.9015,       608,
   75.9216,       604,
   75.9418,       578,
    75.962,       652,
   75.9821,       606,
   76.0023,       583,
   76.0225,       611,
   76.0426,       616,
   76.0628,       608,
    76.083,       591,
   76.1032,       634,
   76.1233,       611,
   76.1435,       596,
   76.1637,       626,
   76.1838,       601,
    76.204,       603,
   76.2242,       643,
   76.2443,       569,
   76.2645,       574,
   76.2847,       600,
   76.3048,       613,
    76.325,       619,
   76.3452,       600,
   76.3653,       592,
   76.3855,       614,
   76.4057,       607,
   76.4258,       639,
    76.446,       622,
   76.4662,       650,
   76.4864,       617,
   76.5065,       604,
   76.5267,       570,
   76.5469,       613,
    76.567,       578,
   76.5872,       602,
   76.6074,       622,
   76.6275,       626,
   76.6477,       598,
   76.6679,       629,
    76.688,       615,
   76.7082,       601,
   76.7284,       599,
   76.7485,       590,
   76.7687,       616,
   76.7889,       624,
    76.809,       612,
   76.8292,       625,
   76.8494,       625,
   76.8696,       581,
   76.8897,       572,
   76.9099,       655,
   76.9301,       562,
   76.9502,       601,
   76.9704,       611,
   76.9906,       623,
   77.0107,       566,
   77.0309,       623,
   77.0511,       629,
   77.0712,       613,
   77.0914,       636,
   77.1116,       580,
   77.1317,       632,
   77.1519,       586,
   77.1721,       593,
   77.1923,       590,
   77.2124,       532,
   77.2326,       638,
   77.2528,       612,
   77.2729,       605,
   77.2931,       634,
   77.3133,       591,
   77.3334,       608,
   77.3536,       604,
   77.3738,       634,
   77.3939,       638,
   77.4141,       573,
   77.4343,       583,
   77.4544,       602,
   77.4746,       601,
   77.4948,       591,
   77.5149,       615,
   77.5351,       599,
   77.5553,       622,
   77.5755,       597,
   77.5956,       582,
   77.6158,       587,
    77.636,       582,
   77.6561,       577,
   77.6763,       628,
   77.6965,       593,
   77.7166,       613,
   77.7368,       609,
    77.757,       587,
   77.7771,       571,
   77.7973,       629,
   77.8175,       597,
   77.8376,       605,
   77.8578,       592,
    77.878,       612,
   77.8981,       575,
   77.9183,       586,
   77.9385,       569,
   77.9587,       583,
   77.9788,       569,
    77.999,       644,
