;RAW4.00
[RawHeader]
Date=11/25/2025
EstimatedTotalTime=426.6
FurtherDQLReading=0
HardwareIndicator=65519
MeasuredTotalTime=4.29924
MeasurementFlag=1
NumberOfMeasuredRanges=1
NumberOfRanges=1
Time=19:16:57

[VarInfo]
Type=USER
Flags=0
Value=Lab Manager

[VarInfo]
Type=SAMPLEID
Flags=0
Value=Commander Sample ID

[VarInfo]
Type=COMMENT
Flags=0
Value=

[VarInfo]
Type=UTF
Flags=0
Value=

[VarInfo]
Type=CREATOR
Flags=0
Value=V5Converter

[VarInfo]
Type=CREATOR_VERSION
Flags=0
Value=4.4.16.0

[HardwareConfiguration]
AbsorptionFactor=9999
ActivateAbsorber=0
Alpha1=1.5406
Alpha2=1.54439
AlphaAverage=1.54184
AlphaRatio=0.5
Analyzer=0
Anode=Cu
AntiScatteringSlit=9999
BeamOpticsFlags=0
Beta=1.39222
BetaRelativeIntensity=0
DeactivateAbsorber=0
DetectorSlit=9999
DivergenceSlit=9999
GoniometerControl=0
GoniometerDiameter=282
GoniometerModel=256
GoniometerStage=7
Monochromator=0
NearSampleSlit=9999
PrimarySollerSlit=9999
SampleChanger=0
SecondSollerSlit=9999
SynchronousAxis=0
ThinFilmAttachment=9999
WaveUnit=A

[RangeHeader]
ActuallyUsedLambda=1.54184
AdditionalDetectorMask=257
DataRecordLength=4
DelayTime=0
DisplayPlaneNumber=0
EstimatedScanTime=427
ExtraParametersMask=0
GeneratorCurrent=10
GeneratorVoltage=30
Increment=0.0201685
Increment3=0
NumberOfCompletedData=1885
NumberOfCounts=1
NumberOfDetectors=0
NumberOfDrives=3
NumberOfEncoderDrives=0
NumberOfMeasuredData=1885
NumberOfVaryingParameters=0
RangeStartTime=0
RotationSpeed=0
ScanMode=1
ScanType=Locked Coupled
SimulatedMeasConditions=0
SlitChangerIn=0
SmootingWidth=0
Start=40.0015
Steps=1885
SynchronousRotation=0
Time=33

[VarInfo]
Type=PSD_DISCRIM
Flags=0
Value=0.11;0.5

[VarInfo]
Type=OPTICS_V5
Flags=0
Value=H4sIAAAAAAAEAO1d63KjOhJ+Fda/zqmtBIPtXKaITzm2J+OaOHbFTnKmtrZcBORYZzC4AOey//d99hl2X2x1QViIS8C3JBN+TCaodWm6+2vUUkfS/nieW9IjcD3o2GcV5bBakYBtOCa0H84qS396oBxV/mhqF44NnTnwgdt25gvHBrbf0X1dQq1t78uzB88qM99ffJHlp6enw6faoeM+yGq1qsh/9i9HxgzM9QNoe75uG6AStjJfb1WRbqEH7y1wpc/BWWXFR0joAM9w4cInL/Bj4UHLsSW+3oXrLBc9NBZ6t3Pgojcb3P8FDH+o+7OzitwBj9AAMt+CrxUfl1Lblu55QRehTORzoM8XqLDt2L4ObeBy/coBc6yHluEvdYtxoR6o1ePT02O5h8TkLue4tzhrTW2EZGjqqBswQr3oFvyXjl+9OdUtD2hyGln7c259hcAyrwHqHhq4EDFpA/KbJ8lNjfKD1ToCFipvdm00JDA1OUbR6Btwou9Ab2HpL824AjQ5tXK8m+bF4OrHhPzodEft64TGrBVWDOsoPhpP1bBWhrxWvISy1r0hIUP+4r8skMLHrm78xG8sGODQhXPdfSHkZBMMakgD9GxISBvSeHkPOIFIQeOidilHx44baRI9r5mSRmyEDSxUYBJZ3blu/xy4JnCvAfYzAL0wsdX3b8s5NVnMwIfj6+8T9KPV/l7IxHm5Jhp5z0OvBh9BE+kGCS98DAk920dCZMIVSikeHA9SJulgmhwp1bAq2ZMXfZT4B2LSAxc+QFu3ogSlwl6OWi7Ssb/0moPwnSLFGmsYPPedJdIj0qJQrgWE0MJ5JCOdEXICmjFtjmnJUA7J0tRxpRHQLUBtYA3AytxYcejGiMm4JZa46kmmLG0LrhEWBa3xcus++8A2MZDfDYZpCWdMkQKtj5nwHfcltGVFk+OFGseMJxH2qHoYWND7cnJosmJN5ku1uCnh1+H65qyTKx3Y545jAR1NEG5s6BPpdiDSG56bXcI59IlYwiKvWdVk7knrgKm+tPxb3VoCboigVyQ96CPXTshnFewlKri/oQta5l9LD8GnYEuZYx67mbHTJoqe6ZblPK0cjVCOarZnwPgJzFUVVqC1ESPOHKsWvx33pNH5Zl7erhEyxkg2xVq1lr7TdoHug6HrLIDrvzAWEyiR9/eIRfdMhLKr5fweuE21rslCEdaQRS08UPF//xMyUSUc9B0TNG8Quqbos4xMnTwz90Y+PzEHluy7tuWt5HgP/ND5vNXOHBXjLvaN2aNbYuh5A79Evm3IJvErCL6JJ23LP418rD3OPSHRTOHDEjnla/gw85sIdabECnU0BoKwUKWYS+vrz5fAfvBnTbXRwKJhj2nOjrJISkNktZevObqMVm/q5DL4SnFwGS02cm5pFninPwKqkpa1mOmKYIUieVuWOJh2nCVqyWzxf//ehzWm2Nxw9uJBQ7dIeQJnTA/KYaNePXrNFtfo7ca2MPfItOjcf/WMZelYS+paugfVBtErK9H60Ibz5bx5oBwenx4fndaUWv3kSK0pjePu32vVE4S4oAZGIvklvWZQ4W0Rs4b0UpC0Rk/7QJiajTD10yOsXjvdJsRYdyXGNhLfFkDGuto1yh6Bqz+IoV6M/ulxppzUt4kz1l2Js43EtwWcsa52jLNz4OupIMPET46w2qmqqttD2Kq7EmEbiW9jhK262jHCrvGaRirECHVXGHuvCFutth02NsJWrKMSVWsKbh08xTrZCZK+OsbSG7gQ2D5ZHRSgJJK3tspG1g4H057tH9XfH6CibEVXr/OjKbkXhfRCBYDfqOeDOWLs0nmABl3VvJn0rm5bl73OpP2tN9TkFYkJfAye/WbPftQtiMQzg4uVjCJaIvW07+CFjI1lEf6uyTEWsnm67F2lsnIJbSARW0kbWtlk6OEgY+yhA20/e3B1k8GZLoaD0auqCHeKD6S58wgk35HmwJjpNrYKCTmTxd/SeKxl8/ienF2WXefzdFk9bOTm6N5Lz546UqiqhAVciZbr3FOQY3BWIVUkVBrdJr+ZtC6H31rRcrGRhEeyyEjkXXKxo0bYURPZUVPYUbPYUQuzEywL8PxEyoQBQloib5PW7UUWe0HrokySmCrg8D78PeybkkWGzrvjVjIvuH4+FiIbUQEDqBXeyxN46LJSkY3uZbffvRqnSMV2TCAFbaXVSDlkQmfBvNq4EkHsASVZZdetcW+QpTTSOp+8YlOLgL9pYnk4ToQicvl10J4MrpMZJONJkeZyfMe6Ed+xvgA2skTfcYU8TFacvPmcsQFLZ8dr7r82tXQiP3O7dSw/voYXlO4q5vl5u6WEjcypLxqFfRNqVSHyCL4FKaFHctihVBMCjFp1f7FErbF+MBEXRsEvZLo55TW19tJ1sT+LmlpQuitTm7f2YWpolHD6sQ1TaySFsh/E0uKy2LulDZ0nkgHOmxQp25WV3aUEnW+xcHMnRJr5lluqhymm+EkWW+4491hde7Ul3ssWbV9+7YtfJA0UTQyNGXBfyVbbPA8ud74bklUw60j9YgWfilQ/I4dzraYmBmuZ2QhiKJW9qxqLdLI3h6IxR/YytzAXT1vD42MIIXVJnC4nR8cylyaJ7OZRhxZeJcCPHu2eWH2ZQFkmUJYJlGUCZZlA+fE2xcsEyvezJV4mUP6aCCsTKN8TxsoEyl8VZ2UC5XvCWZlA+ashrEygfE8IKxMoywTKMoGyTKAsEyjLBMoygbJMoCwTKMsEyjKBskygLBMoywTKMoGyTKAsEyjLBMoygbJMoHzr+KNMoCwTKD9tAiXLkUS/iumT7KzT+Cmg4tm7GScqd+cL/4UkG4arGcVOT+72h4PRhP4scnoyGTg0xcTzk2U+BzLzcGMl7XBjde+HGw8WbefceR5MR45lATfhiGNKyDjkmKsg/WbotmTQQ8ElNJZEifQE7N/XgX9k+LhXSSBnuYaE6hunwkb7FPSZfOxxRGTIPPKL8PePe2KymphYK0bAR+scevtxXAin6Q2diJrmRGpv50S+wmdgEkNlcw/RmVjQz3IliCz1U2CAaRv4kdXICV5EJGb6ELHy5h6E61FQZYr/YA2o98gntQ/sOmq5XMfxeudlE7OmVzSsTJpYMhZe0hcRy1SR/jGf/zPDjH/DR/7fA2QfErQ9hAVgol98R9I5hWWaMq5mhBds4KeJUp0oaQYcIb5mwIVtN52ZmPP5qH/5US30lx930PRnYm4HLtvZktP8/WxBxzgL44DNsuvjPeVdZqh+7nWGuODWWWeI97KTtI5vABumgB1a+LnBszXslNBZz+i3gpzt3wSirjOzGenzhQXuZgBYY/QC/KUgIkkjH65UJ0ChmfamMj+F+lCxGJtFbxiJ1dIisfpGkRjhMR6HvT9h3thLD5hkeHHgLInKwm1g17oJl16CldWVYB+fXrg3mE494KdZfesZevz3Iay2B1ceYybnbh1ywVU1LSlVPTypn6qNRkNN8LvHjcOTRv24dqQqvK8VhNAM7mETbitc+w7DEUCRgJl9i2FYh7v9roNCXwNnMmzhLkORh4SYKLFGsfsMwz42ifVFRj70nYaF9FrM/4zwzYaj4jcbRuW787sNw+F2cbvhyRss3uHlOks3wMyxzMQtgMsX+xm8pBxzcfnj6s/ujy654bCjSsOZ7olX4OYEsRyOEwezQMpa3mDWKOO8X3k4Wj2jProvYAvX6KYzLmrzl7v28CTPUlxNiU9Yi8wL0ecUu0XdWrmWfniNJk2pxn6HJHazGl4xZ9PpjyfkXwFHw4ba6R6gstmscZebgP09bgIKCIswkLYN2N/zNmAmj6JSs3YC+59rJ1Cp53Ii1c+wFVhGSkUjpbRAqXF4dHrSUJRqPWmBqqEcHldP68dqfQeB0sontAHGieA9hcKI4+SmzLSadMAw70kjnLfkkW8dVkPLMIDnOS4E3hoRE+Mi7j2jlLwRUvyl1/ekrIcPHRqtqcpiLudicNWekB9FHA7lZ+eh0Ri4qHQnkdHp3mdFwxkkShPAfO0EGXBRYgTUqKlErdE1Wb0CGJXZGHSdNqGDKCsJ1TJnP6vqMuJUZpxuDuAUxgVFpsREEgUYMFu+rxszPNBZ5WDPRwluc5pzmitr4SQ+y+l5TBQhKMMCjfMcZLfIWj48ALPjYkzSv8ZE3eHvWs9sIu2S3oNHTCEVRwtgwGnwt6KsUpyC4BLvvcgEK46DYs5u+K03mpAfRZxdFKHbnGBVi0yvQisOP5lEYfRDEPwf22IqXU7pckqXI7qcECvsd+8VLsZPznhGTjB6jZVIzZz8ZA+dc9yig6ZEJvFifFQxXo8YAd9H0PIkfi6GHAXNPKxILbzB7vVR6AbplI5NtLGOuVT/5i2e1Rn4EFu+VFtBkewhB6uqmiyUa3yqI/WAkWUTj/6JxSqYYK6D6Pv/u9RXv2COAAA=

[PSD]
ActualTwoTheta=9999
FirstUsedChannel=0
FixedPSD=0
PSDOpening=4.99171
PSDType=5

[Drive]
DriveFlags=1
DriveName=2Theta
DriveNumber=2
DriveOffset=0
OffsetIndex=0
OscillationAmplitude=0
OscillationSpeed=0
StartPosition=40.0015

[Drive]
DriveFlags=1
DriveName=Theta
DriveNumber=1
DriveOffset=0
OffsetIndex=0
OscillationAmplitude=0
OscillationSpeed=0
StartPosition=20.0007

[Drive]
DriveFlags=1
DriveName=Phi
DriveNumber=3
DriveOffset=0
OffsetIndex=0
OscillationAmplitude=0
OscillationSpeed=0
StartPosition=0

[Data]
     Angle,       PSD,
   40.0015,       645,
   40.0217,       634,
   40.0418,       603,
    40.062,       659,
   40.0822,       617,
   40.1023,       661,
   40.1225,       663,
   40.1427,       651,
   40.1628,       692,
    40.183,       640,
   40.2032,       649,
   40.2233,       669,
   40.2435,       666,
   40.2637,       642,
   40.2838,       664,
    40.304,       653,
   40.3242,       656,
   40.3444,       656,
   40.3645,       675,
   40.3847,       652,
   40.4049,       666,
    40.425,       678,
   40.4452,       680,
   40.4654,       642,
   40.4855,       669,
   40.5057,       655,
   40.5259,       652,
    40.546,       616,
   40.5662,       718,
   40.5864,       649,
   40.6065,       656,
   40.6267,       663,
   40.6469,       620,
   40.6671,       669,
   40.6872,       645,
   40.7074,       693,
   40.7276,       653,
   40.7477,       669,
   40.7679,       686,
   40.7881,       674,
   40.8082,       698,
   40.8284,       668,
   40.8486,       648,
   40.8687,       679,
   40.8889,       736,
   40.9091,       673,
   40.9292,       701,
   40.9494,       668,
   40.9696,       640,
   40.9897,       736,
   41.0099,       679,
   41.0301,       686,
   41.0503,       691,
   41.0704,       702,
   41.0906,       718,
   41.1108,       693,
   41.1309,       676,
   41.1511,       695,
   41.1713,       737,
   41.1914,       672,
   41.2116,       679,
   41.2318,       689,
   41.2519,       731,
   41.2721,       720,
   41.2923,       723,
   41.3124,       686,
   41.3326,       708,
   41.3528,       684,
   41.3729,       691,
   41.3931,       741,
   41.4133,       761,
   41.4335,       728,
   41.4536,       687,
   41.4738,       683,
    41.494,       705,
   41.5141,       706,
   41.5343,       741,
   41.5545,       641,
   41.5746,       748,
   41.5948,       710,
    41.615,       749,
   41.6351,       738,
   41.6553,       712,
   41.6755,       737,
   41.6956,       740,
   41.7158,       738,
    41.736,       775,
   41.7562,       689,
   41.7763,       688,
   41.7965,       717,
   41.8167,       755,
   41.8368,       738,
    41.857,       772,
   41.8772,       786,
   41.8973,       780,
   41.9175,       799,
   41.9377,       821,
   41.9578,       846,
    41.978,       831,
   41.9982,       848,
   42.0183,       820,
   42.0385,       832,
   42.0587,       781,
   42.0788,       884,
    42.099,       843,
   42.1192,       856,
   42.1394,       853,
   42.1595,       839,
   42.1797,       848,
   42.1999,       831,
     42.22,       799,
   42.2402,       904,
   42.2604,       863,
   42.2805,       912,
   42.3007,       875,
   42.3209,       897,
    42.341,       920,
   42.3612,       866,
   42.3814,       903,
   42.4015,       944,
   42.4217,       917,
   42.4419,       895,
    42.462,       902,
   42.4822,       962,
   42.5024,       936,
   42.5226,      1026,
   42.5427,       967,
   42.5629,      1008,
   42.5831,      1028,
   42.6032,      1013,
   42.6234,      1030,
   42.6436,      1048,
   42.6637,      1107,
   42.6839,      1114,
   42.7041,      1110,
   42.7242,      1219,
   42.7444,      1138,
   42.7646,      1196,
   42.7847,      1266,
   42.8049,      1326,
   42.8251,      1356,
   42.8453,      1415,
   42.8654,      1465,
   42.8856,      1548,
   42.9058,      1697,
   42.9259,      1706,
   42.9461,      1744,
   42.9663,      1954,
   42.9864,      2015,
   43.0066,      2190,
   43.0268,      2388,
   43.0469,      2610,
   43.0671,      2801,
   43.0873,      3047,
   43.1074,      3383,
   43.1276,      3866,
   43.1478,      4273,
   43.1679,      4820,
   43.1881,      5665,
   43.2083,      6509,
   43.2285,      7484,
   43.2486,      8747,
   43.2688,     10132,
    43.289,     11901,
   43.3091,     12992,
   43.3293,     14180,
   43.3495,     15485,
   43.3696,     15510,
   43.3898,     15225,
     43.41,     14976,
   43.4301,     14256,
   43.4503,     13468,
   43.4705,     12512,
   43.4906,     11427,
   43.5108,     10081,
    43.531,      8692,
   43.5511,      7714,
   43.5713,      6761,
   43.5915,      5961,
   43.6117,      5189,
   43.6318,      4627,
    43.652,      4026,
   43.6722,      3698,
   43.6923,      3262,
   43.7125,      2996,
   43.7327,      2654,
   43.7528,      2403,
    43.773,      2330,
   43.7932,      2142,
   43.8133,      2024,
   43.8335,      1889,
   43.8537,      1761,
   43.8738,      1680,
    43.894,      1596,
   43.9142,      1575,
   43.9344,      1474,
   43.9545,      1502,
   43.9747,      1391,
   43.9949,      1287,
    44.015,      1308,
   44.0352,      1241,
   44.0554,      1200,
   44.0755,      1156,
   44.0957,      1199,
   44.1159,      1126,
    44.136,      1108,
   44.1562,      1111,
   44.1764,      1065,
   44.1965,      1036,
   44.2167,      1040,
   44.2369,      1052,
    44.257,      1039,
   44.2772,       975,
   44.2974,       974,
   44.3176,       997,
   44.3377,       943,
   44.3579,       954,
   44.3781,      1064,
   44.3982,       980,
   44.4184,       945,
   44.4386,       977,
   44.4587,       896,
   44.4789,       901,
   44.4991,       933,
   44.5192,       882,
   44.5394,       929,
   44.5596,       915,
   44.5797,       855,
   44.5999,       828,
   44.6201,       912,
   44.6402,       895,
   44.6604,       890,
   44.6806,       891,
   44.7008,       836,
   44.7209,       829,
   44.7411,       865,
   44.7613,       819,
   44.7814,       809,
   44.8016,       872,
   44.8218,       827,
   44.8419,       835,
   44.8621,       804,
   44.8823,       842,
   44.9024,       827,
   44.9226,       817,
   44.9428,       836,
   44.9629,       825,
   44.9831,       830,
   45.0033,       818,
   45.0235,       860,
   45.0436,       850,
   45.0638,       856,
    45.084,       847,
   45.1041,       813,
   45.1243,       807,
   45.1445,       771,
   45.1646,       819,
   45.1848,       801,
    45.205,       846,
   45.2251,       776,
   45.2453,       791,
   45.2655,       778,
   45.2856,       796,
   45.3058,       788,
    45.326,       804,
   45.3461,       770,
   45.3663,       832,
   45.3865,       787,
   45.4067,       769,
   45.4268,       764,
    45.447,       795,
   45.4672,       754,
   45.4873,       767,
   45.5075,       784,
   45.5277,       782,
   45.5478,       842,
    45.568,       764,
   45.5882,       803,
   45.6083,       808,
   45.6285,       789,
   45.6487,       786,
   45.6688,       743,
    45.689,       745,
   45.7092,       765,
   45.7294,       772,
   45.7495,       745,
   45.7697,       749,
   45.7899,       756,
     45.81,       758,
   45.8302,       750,
   45.8504,       762,
   45.8705,       726,
   45.8907,       797,
   45.9109,       768,
    45.931,       767,
   45.9512,       712,
   45.9714,       746,
   45.9915,       747,
   46.0117,       738,
   46.0319,       773,
    46.052,       758,
   46.0722,       751,
   46.0924,       762,
   46.1126,       731,
   46.1327,       774,
   46.1529,       768,
   46.1731,       742,
   46.1932,       782,
   46.2134,       788,
   46.2336,       733,
   46.2537,       736,
   46.2739,       722,
   46.2941,       764,
   46.3142,       737,
   46.3344,       762,
   46.3546,       784,
   46.3747,       739,
   46.3949,       781,
   46.4151,       728,
   46.4352,       730,
   46.4554,       675,
   46.4756,       754,
   46.4958,       767,
   46.5159,       762,
   46.5361,       747,
   46.5563,       737,
   46.5764,       764,
   46.5966,       737,
   46.6168,       734,
   46.6369,       740,
   46.6571,       779,
   46.6773,       707,
   46.6974,       771,
   46.7176,       714,
   46.7378,       760,
   46.7579,       782,
   46.7781,       747,
   46.7983,       726,
   46.8185,       762,
   46.8386,       732,
   46.8588,       707,
    46.879,       691,
   46.8991,       691,
   46.9193,       784,
   46.9395,       740,
   46.9596,       759,
   46.9798,       700,
        47,       774,
   47.0201,       754,
   47.0403,       689,
   47.0605,       691,
   47.0806,       707,
   47.1008,       753,
    47.121,       755,
   47.1411,       715,
   47.1613,       691,
   47.1815,       764,
   47.2017,       750,
   47.2218,       725,
    47.242,       763,
   47.2622,       727,
   47.2823,       693,
   47.3025,       711,
   47.3227,       704,
   47.3428,       702,
    47.363,       707,
   47.3832,       697,
   47.4033,       734,
   47.4235,       710,
   47.4437,       767,
   47.4638,       709,
    47.484,       669,
   47.5042,       721,
   47.5243,       755,
   47.5445,       768,
   47.5647,       722,
   47.5849,       685,
    47.605,       742,
   47.6252,       685,
   47.6454,       733,
   47.6655,       713,
   47.6857,       721,
   47.7059,       769,
    47.726,       742,
   47.7462,       736,
   47.7664,       771,
   47.7865,       718,
   47.8067,       734,
   47.8269,       719,
    47.847,       727,
   47.8672,       736,
   47.8874,       712,
   47.9076,       678,
   47.9277,       754,
   47.9479,       723,
   47.9681,       780,
   47.9882,       756,
   48.0084,       752,
   48.0286,       750,
   48.0487,       728,
   48.0689,       732,
   48.0891,       759,
   48.1092,       735,
   48.1294,       693,
   48.1496,       757,
   48.1697,       767,
   48.1899,       747,
   48.2101,       777,
   48.2302,       745,
   48.2504,       748,
   48.2706,       730,
   48.2908,       754,
   48.3109,       737,
   48.3311,       688,
   48.3513,       753,
   48.3714,       748,
   48.3916,       716,
   48.4118,       742,
   48.4319,       762,
   48.4521,       731,
   48.4723,       730,
   48.4924,       733,
   48.5126,       735,
   48.5328,       732,
   48.5529,       788,
   48.5731,       728,
   48.5933,       756,
   48.6134,       723,
   48.6336,       753,
   48.6538,       753,
    48.674,       780,
   48.6941,       712,
   48.7143,       759,
   48.7345,       755,
   48.7546,       740,
   48.7748,       766,
    48.795,       749,
   48.8151,       787,
   48.8353,       784,
   48.8555,       725,
   48.8756,       819,
   48.8958,       832,
    48.916,       797,
   48.9361,       748,
   48.9563,       761,
   48.9765,       790,
   48.9967,       825,
   49.0168,       814,
    49.037,       790,
   49.0572,       819,
   49.0773,       818,
   49.0975,       805,
   49.1177,       806,
   49.1378,       759,
    49.158,       755,
   49.1782,       803,
   49.1983,       812,
   49.2185,       802,
   49.2387,       820,
   49.2588,       820,
    49.279,       747,
   49.2992,       798,
   49.3193,       826,
   49.3395,       787,
   49.3597,       829,
   49.3799,       865,
      49.4,       887,
   49.4202,       879,
   49.4404,       844,
   49.4605,       896,
   49.4807,       855,
   49.5009,       860,
    49.521,       893,
   49.5412,       900,
   49.5614,       910,
   49.5815,       902,
   49.6017,       912,
   49.6219,       909,
    49.642,       948,
   49.6622,       994,
   49.6824,       988,
   49.7025,      1004,
   49.7227,      1043,
   49.7429,      1042,
   49.7631,      1056,
   49.7832,      1028,
   49.8034,      1126,
   49.8236,      1160,
   49.8437,      1141,
   49.8639,      1150,
   49.8841,      1259,
   49.9042,      1192,
   49.9244,      1265,
   49.9446,      1271,
   49.9647,      1380,
   49.9849,      1331,
   50.0051,      1399,
   50.0252,      1472,
   50.0454,      1537,
   50.0656,      1551,
   50.0858,      1682,
   50.1059,      1779,
   50.1261,      1873,
   50.1463,      1942,
   50.1664,      2035,
   50.1866,      2146,
   50.2068,      2263,
   50.2269,      2341,
   50.2471,      2556,
   50.2673,      2641,
   50.2874,      2794,
   50.3076,      2959,
   50.3278,      3201,
   50.3479,      3207,
   50.3681,      3362,
   50.3883,      3467,
   50.4084,      3827,
   50.4286,      3828,
   50.4488,      3797,
    50.469,      4001,
   50.4891,      3956,
   50.5093,      4037,
   50.5295,      3929,
   50.5496,      3811,
   50.5698,      3803,
     50.59,      3674,
   50.6101,      3553,
   50.6303,      3479,
   50.6505,      3299,
   50.6706,      3060,
   50.6908,      3044,
    50.711,      2818,
   50.7311,      2669,
   50.7513,      2566,
   50.7715,      2425,
   50.7917,      2291,
   50.8118,      2193,
    50.832,      2057,
   50.8522,      1925,
   50.8723,      1904,
   50.8925,      1721,
   50.9127,      1672,
   50.9328,      1666,
    50.953,      1562,
   50.9732,      1416,
   50.9933,      1428,
   51.0135,      1367,
   51.0337,      1297,
   51.0538,      1263,
    51.074,      1215,
   51.0942,      1076,
   51.1143,      1062,
   51.1345,      1067,
   51.1547,      1068,
   51.1749,      1028,
    51.195,      1084,
   51.2152,      1005,
   51.2354,       987,
   51.2555,       959,
   51.2757,       986,
   51.2959,       917,
    51.316,       890,
   51.3362,       906,
   51.3564,       846,
   51.3765,       884,
   51.3967,       860,
   51.4169,       864,
    51.437,       875,
   51.4572,       813,
   51.4774,       852,
   51.4975,       830,
   51.5177,       792,
   51.5379,       808,
   51.5581,       823,
   51.5782,       827,
   51.5984,       796,
   51.6186,       774,
   51.6387,       769,
   51.6589,       838,
   51.6791,       755,
   51.6992,       767,
   51.7194,       773,
   51.7396,       801,
   51.7597,       770,
   51.7799,       734,
   51.8001,       722,
   51.8202,       754,
   51.8404,       741,
   51.8606,       716,
   51.8808,       752,
   51.9009,       705,
   51.9211,       737,
   51.9413,       701,
   51.9614,       694,
   51.9816,       751,
   52.0018,       753,
   52.0219,       769,
   52.0421,       794,
   52.0623,       692,
   52.0824,       737,
   52.1026,       750,
   52.1228,       708,
   52.1429,       663,
   52.1631,       677,
   52.1833,       776,
   52.2034,       680,
   52.2236,       732,
   52.2438,       705,
    52.264,       713,
   52.2841,       715,
   52.3043,       730,
   52.3245,       698,
   52.3446,       677,
   52.3648,       697,
    52.385,       709,
   52.4051,       681,
   52.4253,       712,
   52.4455,       694,
   52.4656,       689,
   52.4858,       716,
    52.506,       700,
   52.5261,       722,
   52.5463,       695,
   52.5665,       695,
   52.5866,       663,
   52.6068,       677,
    52.627,       675,
   52.6472,       673,
   52.6673,       723,
   52.6875,       697,
   52.7077,       680,
   52.7278,       671,
    52.748,       678,
   52.7682,       727,
   52.7883,       676,
   52.8085,       725,
   52.8287,       725,
   52.8488,       711,
    52.869,       700,
   52.8892,       692,
   52.9093,       615,
   52.9295,       704,
   52.9497,       688,
   52.9699,       676,
     52.99,       725,
   53.0102,       655,
   53.0304,       663,
   53.0505,       637,
   53.0707,       708,
   53.0909,       674,
    53.111,       649,
   53.1312,       647,
   53.1514,       664,
   53.1715,       690,
   53.1917,       690,
   53.2119,       654,
    53.232,       669,
   53.2522,       672,
   53.2724,       673,
   53.2925,       669,
   53.3127,       638,
   53.3329,       691,
   53.3531,       698,
   53.3732,       663,
   53.3934,       663,
   53.4136,       617,
   53.4337,       694,
   53.4539,       679,
   53.4741,       629,
   53.4942,       672,
   53.5144,       689,
   53.5346,       642,
   53.5547,       645,
   53.5749,       704,
   53.5951,       661,
   53.6152,       664,
   53.6354,       689,
   53.6556,       670,
   53.6757,       641,
   53.6959,       664,
   53.7161,       652,
   53.7363,       621,
   53.7564,       659,
   53.7766,       655,
   53.7968,       646,
   53.8169,       696,
   53.8371,       667,
   53.8573,       640,
   53.8774,       658,
   53.8976,       655,
   53.9178,       668,
   53.9379,       666,
   53.9581,       650,
   53.9783,       676,
   53.9984,       652,
   54.0186,       698,
   54.0388,       664,
    54.059,       659,
   54.0791,       653,
   54.0993,       679,
   54.1195,       683,
   54.1396,       625,
   54.1598,       668,
     54.18,       664,
   54.2001,       640,
   54.2203,       656,
   54.2405,       669,
   54.2606,       692,
   54.2808,       639,
    54.301,       669,
   54.3211,       680,
   54.3413,       614,
   54.3615,       649,
   54.3816,       660,
   54.4018,       660,
    54.422,       625,
   54.4422,       633,
   54.4623,       678,
   54.4825,       653,
   54.5027,       674,
   54.5228,       662,
    54.543,       665,
   54.5632,       669,
   54.5833,       666,
   54.6035,       648,
   54.6237,       655,
   54.6438,       637,
    54.664,       727,
   54.6842,       680,
   54.7043,       647,
   54.7245,       689,
   54.7447,       652,
   54.7648,       658,
    54.785,       685,
   54.8052,       635,
   54.8254,       636,
   54.8455,       675,
   54.8657,       688,
   54.8859,       643,
    54.906,       646,
   54.9262,       656,
   54.9464,       695,
   54.9665,       665,
   54.9867,       652,
   55.0069,       639,
    55.027,       653,
   55.0472,       654,
   55.0674,       671,
   55.0875,       614,
   55.1077,       657,
   55.1279,       629,
   55.1481,       673,
   55.1682,       655,
   55.1884,       655,
   55.2086,       658,
   55.2287,       570,
   55.2489,       681,
   55.2691,       631,
   55.2892,       675,
   55.3094,       659,
   55.3296,       656,
   55.3497,       619,
   55.3699,       645,
   55.3901,       649,
   55.4102,       703,
   55.4304,       630,
   55.4506,       656,
   55.4707,       680,
   55.4909,       630,
   55.5111,       619,
   55.5313,       629,
   55.5514,       614,
   55.5716,       623,
   55.5918,       618,
   55.6119,       640,
   55.6321,       687,
   55.6523,       657,
   55.6724,       637,
   55.6926,       629,
   55.7128,       667,
   55.7329,       680,
   55.7531,       689,
   55.7733,       646,
   55.7934,       653,
   55.8136,       659,
   55.8338,       660,
    55.854,       594,
   55.8741,       639,
   55.8943,       648,
   55.9145,       644,
   55.9346,       590,
   55.9548,       623,
    55.975,       632,
   55.9951,       650,
   56.0153,       696,
   56.0355,       645,
   56.0556,       646,
   56.0758,       619,
    56.096,       692,
   56.1161,       652,
   56.1363,       629,
   56.1565,       613,
   56.1766,       640,
   56.1968,       607,
    56.217,       627,
   56.2372,       625,
   56.2573,       637,
   56.2775,       652,
   56.2977,       609,
   56.3178,       613,
    56.338,       666,
   56.3582,       663,
   56.3783,       680,
   56.3985,       604,
   56.4187,       654,
   56.4388,       638,
    56.459,       652,
   56.4792,       673,
   56.4993,       664,
   56.5195,       627,
   56.5397,       645,
   56.5598,       616,
     56.58,       587,
   56.6002,       655,
   56.6204,       602,
   56.6405,       635,
   56.6607,       656,
   56.6809,       642,
    56.701,       677,
   56.7212,       655,
   56.7414,       605,
   56.7615,       666,
   56.7817,       664,
   56.8019,       609,
    56.822,       611,
   56.8422,       641,
   56.8624,       667,
   56.8825,       666,
   56.9027,       600,
   56.9229,       654,
   56.9431,       675,
   56.9632,       645,
   56.9834,       671,
   57.0036,       596,
   57.0237,       655,
   57.0439,       641,
   57.0641,       629,
   57.0842,       646,
   57.1044,       638,
   57.1246,       636,
   57.1447,       656,
   57.1649,       654,
   57.1851,       659,
   57.2052,       588,
   57.2254,       622,
   57.2456,       678,
   57.2657,       623,
   57.2859,       597,
   57.3061,       636,
   57.3263,       607,
   57.3464,       687,
   57.3666,       610,
   57.3868,       611,
   57.4069,       624,
   57.4271,       674,
   57.4473,       658,
   57.4674,       657,
   57.4876,       650,
   57.5078,       640,
   57.5279,       623,
   57.5481,       631,
   57.5683,       619,
   57.5884,       576,
   57.6086,       640,
   57.6288,       681,
   57.6489,       602,
   57.6691,       636,
   57.6893,       617,
   57.7095,       611,
   57.7296,       619,
   57.7498,       635,
     57.77,       656,
   57.7901,       633,
   57.8103,       691,
   57.8305,       621,
   57.8506,       654,
   57.8708,       602,
    57.891,       618,
   57.9111,       633,
   57.9313,       645,
   57.9515,       653,
   57.9716,       673,
   57.9918,       603,
    58.012,       616,
   58.0322,       624,
   58.0523,       647,
   58.0725,       637,
   58.0927,       639,
   58.1128,       629,
    58.133,       619,
   58.1532,       611,
   58.1733,       630,
   58.1935,       649,
   58.2137,       656,
   58.2338,       643,
    58.254,       617,
   58.2742,       574,
   58.2943,       647,
   58.3145,       618,
   58.3347,       647,
   58.3548,       624,
    58.375,       620,
   58.3952,       633,
   58.4154,       648,
   58.4355,       606,
   58.4557,       660,
   58.4759,       610,
    58.496,       613,
   58.5162,       603,
   58.5364,       571,
   58.5565,       627,
   58.5767,       641,
   58.5969,       669,
    58.617,       669,
   58.6372,       620,
   58.6574,       628,
   58.6775,       674,
   58.6977,       653,
   58.7179,       612,
    58.738,       634,
   58.7582,       606,
   58.7784,       626,
   58.7986,       617,
   58.8187,       610,
   58.8389,       668,
   58.8591,       670,
   58.8792,       559,
   58.8994,       650,
   58.9196,       590,
   58.9397,       673,
   58.9599,       665,
   58.9801,       654,
   59.0002,       595,
   59.0204,       635,
   59.0406,       625,
   59.0607,       626,
   59.0809,       593,
   59.1011,       620,
   59.1213,       655,
   59.1414,       617,
   59.1616,       614,
   59.1818,       614,
   59.2019,       645,
   59.2221,       602,
   59.2423,       622,
   59.2624,       603,
   59.2826,       616,
   59.3028,       632,
   59.3229,       614,
   59.3431,       574,
   59.3633,       615,
   59.3834,       595,
   59.4036,       595,
   59.4238,       594,
   59.4439,       614,
   59.4641,       617,
   59.4843,       636,
   59.5045,       627,
   59.5246,       623,
   59.5448,       605,
    59.565,       616,
   59.5851,       638,
   59.6053,       611,
   59.6255,       591,
   59.6456,       605,
   59.6658,       651,
    59.686,       627,
   59.7061,       641,
   59.7263,       613,
   59.7465,       650,
   59.7666,       596,
   59.7868,       663,
    59.807,       601,
   59.8271,       617,
   59.8473,       583,
   59.8675,       596,
   59.8877,       599,
   59.9078,       611,
    59.928,       671,
   59.9482,       638,
   59.9683,       672,
   59.9885,       672,
   60.0087,       633,
   60.0288,       630,
    60.049,       631,
   60.0692,       631,
   60.0893,       623,
   60.1095,       629,
   60.1297,       628,
   60.1498,       620,
     60.17,       659,
   60.1902,       629,
   60.2104,       613,
   60.2305,       620,
   60.2507,       607,
   60.2709,       606,
    60.291,       623,
   60.3112,       580,
   60.3314,       569,
   60.3515,       630,
   60.3717,       635,
   60.3919,       644,
    60.412,       610,
   60.4322,       652,
   60.4524,       625,
   60.4725,       632,
   60.4927,       637,
   60.5129,       636,
    60.533,       634,
   60.5532,       664,
   60.5734,       598,
   60.5936,       600,
   60.6137,       633,
   60.6339,       659,
   60.6541,       603,
   60.6742,       598,
   60.6944,       597,
   60.7146,       655,
   60.7347,       606,
   60.7549,       618,
   60.7751,       588,
   60.7952,       640,
   60.8154,       656,
   60.8356,       644,
   60.8557,       619,
   60.8759,       606,
   60.8961,       631,
   60.9163,       601,
   60.9364,       596,
   60.9566,       635,
   60.9768,       638,
   60.9969,       624,
   61.0171,       553,
   61.0373,       595,
   61.0574,       650,
   61.0776,       629,
   61.0978,       614,
   61.1179,       602,
   61.1381,       610,
   61.1583,       608,
   61.1784,       619,
   61.1986,       636,
   61.2188,       631,
   61.2389,       620,
   61.2591,       638,
   61.2793,       605,
   61.2995,       636,
   61.3196,       615,
   61.3398,       618,
     61.36,       650,
   61.3801,       603,
   61.4003,       642,
   61.4205,       662,
   61.4406,       664,
   61.4608,       646,
    61.481,       605,
   61.5011,       652,
   61.5213,       639,
   61.5415,       639,
   61.5616,       589,
   61.5818,       608,
    61.602,       656,
   61.6221,       582,
   61.6423,       606,
   61.6625,       587,
   61.6827,       636,
   61.7028,       602,
    61.723,       618,
   61.7432,       570,
   61.7633,       617,
   61.7835,       653,
   61.8037,       635,
   61.8238,       621,
    61.844,       619,
   61.8642,       641,
   61.8843,       627,
   61.9045,       602,
   61.9247,       620,
   61.9448,       574,
    61.965,       617,
   61.9852,       625,
   62.0054,       659,
   62.0255,       606,
   62.0457,       636,
   62.0659,       649,
    62.086,       616,
   62.1062,       639,
   62.1264,       598,
   62.1465,       627,
   62.1667,       614,
   62.1869,       627,
    62.207,       608,
   62.2272,       596,
   62.2474,       622,
   62.2675,       616,
   62.2877,       631,
   62.3079,       643,
    62.328,       603,
   62.3482,       638,
   62.3684,       619,
   62.3886,       615,
   62.4087,       614,
   62.4289,       618,
   62.4491,       658,
   62.4692,       592,
   62.4894,       629,
   62.5096,       573,
   62.5297,       646,
   62.5499,       612,
   62.5701,       638,
   62.5902,       594,
   62.6104,       608,
   62.6306,       648,
   62.6507,       675,
   62.6709,       640,
   62.6911,       633,
   62.7112,       576,
   62.7314,       619,
   62.7516,       616,
   62.7718,       647,
   62.7919,       624,
   62.8121,       629,
   62.8323,       628,
   62.8524,       622,
   62.8726,       598,
   62.8928,       570,
   62.9129,       603,
   62.9331,       635,
   62.9533,       625,
   62.9734,       684,
   62.9936,       597,
   63.0138,       629,
   63.0339,       633,
   63.0541,       618,
   63.0743,       623,
   63.0945,       629,
   63.1146,       627,
   63.1348,       634,
    63.155,       619,
   63.1751,       622,
   63.1953,       609,
   63.2155,       609,
   63.2356,       613,
   63.2558,       566,
    63.276,       577,
   63.2961,       602,
   63.3163,       622,
   63.3365,       601,
   63.3566,       588,
   63.3768,       606,
    63.397,       620,
   63.4171,       596,
   63.4373,       648,
   63.4575,       608,
   63.4777,       588,
   63.4978,       640,
    63.518,       602,
   63.5382,       621,
   63.5583,       631,
   63.5785,       653,
   63.5987,       607,
   63.6188,       599,
    63.639,       555,
   63.6592,       627,
   63.6793,       591,
   63.6995,       620,
   63.7197,       618,
   63.7398,       629,
     63.76,       648,
   63.7802,       614,
   63.8003,       587,
   63.8205,       624,
   63.8407,       606,
   63.8609,       564,
    63.881,       632,
   63.9012,       625,
   63.9214,       607,
   63.9415,       617,
   63.9617,       633,
   63.9819,       604,
    64.002,       637,
   64.0222,       605,
   64.0424,       610,
   64.0625,       618,
   64.0827,       645,
   64.1029,       604,
    64.123,       608,
   64.1432,       618,
   64.1634,       583,
   64.1836,       605,
   64.2037,       566,
   64.2239,       604,
   64.2441,       583,
   64.2642,       662,
   64.2844,       622,
   64.3046,       594,
   64.3247,       570,
   64.3449,       609,
   64.3651,       633,
   64.3852,       637,
   64.4054,       602,
   64.4256,       595,
   64.4457,       587,
   64.4659,       559,
   64.4861,       661,
   64.5062,       610,
   64.5264,       631,
   64.5466,       599,
   64.5668,       608,
   64.5869,       623,
   64.6071,       601,
   64.6273,       549,
   64.6474,       627,
   64.6676,       598,
   64.6878,       595,
   64.7079,       613,
   64.7281,       588,
   64.7483,       641,
   64.7684,       575,
   64.7886,       627,
   64.8088,       600,
   64.8289,       619,
   64.8491,       576,
   64.8693,       649,
   64.8894,       604,
   64.9096,       603,
   64.9298,       626,
     64.95,       611,
   64.9701,       593,
   64.9903,       613,
   65.0105,       598,
   65.0306,       617,
   65.0508,       623,
    65.071,       617,
   65.0911,       612,
   65.1113,       608,
   65.1315,       577,
   65.1516,       588,
   65.1718,       583,
    65.192,       599,
   65.2121,       601,
   65.2323,       678,
   65.2525,       601,
   65.2727,       647,
   65.2928,       561,
    65.313,       587,
   65.3332,       597,
   65.3533,       585,
   65.3735,       660,
   65.3937,       629,
   65.4138,       607,
    65.434,       594,
   65.4542,       607,
   65.4743,       589,
   65.4945,       609,
   65.5147,       682,
   65.5348,       572,
    65.555,       601,
   65.5752,       604,
   65.5953,       630,
   65.6155,       608,
   65.6357,       635,
   65.6559,       620,
    65.676,       608,
   65.6962,       589,
   65.7164,       617,
   65.7365,       639,
   65.7567,       608,
   65.7769,       614,
    65.797,       609,
   65.8172,       604,
   65.8374,       549,
   65.8575,       641,
   65.8777,       672,
   65.8979,       607,
    65.918,       611,
   65.9382,       642,
   65.9584,       598,
   65.9786,       619,
   65.9987,       569,
   66.0189,       608,
   66.0391,       596,
   66.0592,       613,
   66.0794,       580,
   66.0996,       599,
   66.1197,       634,
   66.1399,       627,
   66.1601,       624,
   66.1802,       606,
   66.2004,       623,
   66.2206,       594,
   66.2407,       604,
   66.2609,       639,
   66.2811,       588,
   66.3012,       580,
   66.3214,       580,
   66.3416,       626,
   66.3618,       617,
   66.3819,       587,
   66.4021,       617,
   66.4223,       598,
   66.4424,       606,
   66.4626,       567,
   66.4828,       595,
   66.5029,       598,
   66.5231,       618,
   66.5433,       580,
   66.5634,       589,
   66.5836,       622,
   66.6038,       609,
   66.6239,       645,
   66.6441,       630,
   66.6643,       634,
   66.6844,       608,
   66.7046,       616,
   66.7248,       593,
    66.745,       618,
   66.7651,       614,
   66.7853,       639,
   66.8055,       617,
   66.8256,       621,
   66.8458,       620,
    66.866,       601,
   66.8861,       573,
   66.9063,       575,
   66.9265,       577,
   66.9466,       648,
   66.9668,       596,
    66.987,       631,
   67.0071,       581,
   67.0273,       539,
   67.0475,       563,
   67.0677,       603,
   67.0878,       607,
    67.108,       597,
   67.1282,       603,
   67.1483,       572,
   67.1685,       616,
   67.1887,       610,
   67.2088,       600,
    67.229,       624,
   67.2492,       585,
   67.2693,       578,
   67.2895,       612,
   67.3097,       592,
   67.3298,       614,
     67.35,       661,
   67.3702,       610,
   67.3903,       649,
   67.4105,       618,
   67.4307,       561,
   67.4509,       615,
    67.471,       593,
   67.4912,       617,
   67.5114,       592,
   67.5315,       612,
   67.5517,       626,
   67.5719,       623,
    67.592,       590,
   67.6122,       608,
   67.6324,       624,
   67.6525,       600,
   67.6727,       617,
   67.6929,       586,
    67.713,       622,
   67.7332,       607,
   67.7534,       599,
   67.7735,       571,
   67.7937,       591,
   67.8139,       623,
   67.8341,       618,
   67.8542,       592,
   67.8744,       610,
   67.8946,       603,
   67.9147,       615,
   67.9349,       610,
   67.9551,       597,
   67.9752,       607,
   67.9954,       604,
   68.0156,       625,
   68.0357,       633,
   68.0559,       559,
   68.0761,       586,
   68.0962,       623,
   68.1164,       605,
   68.1366,       623,
   68.1568,       622,
   68.1769,       585,
   68.1971,       665,
   68.2173,       616,
   68.2374,       670,
   68.2576,       604,
   68.2778,       601,
   68.2979,       639,
   68.3181,       629,
   68.3383,       545,
   68.3584,       616,
   68.3786,       617,
   68.3988,       594,
   68.4189,       584,
   68.4391,       602,
   68.4593,       598,
   68.4794,       634,
   68.4996,       616,
   68.5198,       643,
     68.54,       646,
   68.5601,       594,
   68.5803,       589,
   68.6005,       641,
   68.6206,       636,
   68.6408,       606,
    68.661,       635,
   68.6811,       569,
   68.7013,       597,
   68.7215,       571,
   68.7416,       623,
   68.7618,       601,
    68.782,       584,
   68.8021,       582,
   68.8223,       614,
   68.8425,       611,
   68.8626,       577,
   68.8828,       605,
    68.903,       589,
   68.9232,       575,
   68.9433,       577,
   68.9635,       591,
   68.9837,       602,
   69.0038,       600,
    69.024,       615,
   69.0442,       635,
   69.0643,       600,
   69.0845,       564,
   69.1047,       606,
   69.1248,       617,
    69.145,       633,
   69.1652,       610,
   69.1853,       599,
   69.2055,       590,
   69.2257,       608,
   69.2459,       654,
    69.266,       651,
   69.2862,       611,
   69.3064,       556,
   69.3265,       585,
   69.3467,       619,
   69.3669,       627,
    69.387,       567,
   69.4072,       599,
   69.4274,       605,
   69.4475,       622,
   69.4677,       597,
   69.4879,       585,
    69.508,       604,
   69.5282,       590,
   69.5484,       606,
   69.5685,       603,
   69.5887,       626,
   69.6089,       634,
   69.6291,       562,
   69.6492,       602,
   69.6694,       577,
   69.6896,       596,
   69.7097,       553,
   69.7299,       602,
   69.7501,       546,
   69.7702,       611,
   69.7904,       620,
   69.8106,       566,
   69.8307,       599,
   69.8509,       604,
   69.8711,       598,
   69.8912,       608,
   69.9114,       630,
   69.9316,       605,
   69.9517,       596,
   69.9719,       610,
   69.9921,       593,
   70.0123,       589,
   70.0324,       618,
   70.0526,       648,
   70.0728,       601,
   70.0929,       603,
   70.1131,       633,
   70.1333,       562,
   70.1534,       579,
   70.1736,       601,
   70.1938,       572,
   70.2139,       615,
   70.2341,       597,
   70.2543,       591,
   70.2744,       599,
   70.2946,       626,
   70.3148,       608,
    70.335,       597,
   70.3551,       614,
   70.3753,       615,
   70.3955,       608,
   70.4156,       601,
   70.4358,       606,
    70.456,       650,
   70.4761,       645,
   70.4963,       602,
   70.5165,       589,
   70.5366,       565,
   70.5568,       636,
    70.577,       598,
   70.5971,       628,
   70.6173,       566,
   70.6375,       644,
   70.6576,       628,
   70.6778,       561,
    70.698,       582,
   70.7182,       634,
   70.7383,       590,
   70.7585,       611,
   70.7787,       641,
   70.7988,       574,
    70.819,       580,
   70.8392,       616,
   70.8593,       623,
   70.8795,       570,
   70.8997,       658,
   70.9198,       609,
     70.94,       617,
   70.9602,       611,
   70.9803,       632,
   71.0005,       595,
   71.0207,       597,
   71.0409,       631,
    71.061,       636,
   71.0812,       689,
   71.1014,       574,
   71.1215,       573,
   71.1417,       602,
   71.1619,       644,
    71.182,       654,
   71.2022,       570,
   71.2224,       595,
   71.2425,       581,
   71.2627,       622,
   71.2829,       618,
    71.303,       606,
   71.3232,       596,
   71.3434,       572,
   71.3635,       624,
   71.3837,       592,
   71.4039,       589,
   71.4241,       612,
   71.4442,       616,
   71.4644,       601,
   71.4846,       586,
   71.5047,       608,
   71.5249,       607,
   71.5451,       640,
   71.5652,       609,
   71.5854,       644,
   71.6056,       630,
   71.6257,       629,
   71.6459,       603,
   71.6661,       621,
   71.6862,       604,
   71.7064,       596,
   71.7266,       634,
   71.7467,       609,
   71.7669,       642,
   71.7871,       630,
   71.8073,       636,
   71.8274,       614,
   71.8476,       588,
   71.8678,       600,
   71.8879,       615,
   71.9081,       597,
   71.9283,       628,
   71.9484,       644,
   71.9686,       585,
   71.9888,       614,
   72.0089,       644,
   72.0291,       589,
   72.0493,       650,
   72.0694,       632,
   72.0896,       644,
   72.1098,       642,
     72.13,       617,
   72.1501,       650,
   72.1703,       620,
   72.1905,       624,
   72.2106,       606,
   72.2308,       593,
    72.251,       670,
   72.2711,       626,
   72.2913,       608,
   72.3115,       643,
   72.3316,       619,
   72.3518,       658,
    72.372,       600,
   72.3921,       618,
   72.4123,       598,
   72.4325,       645,
   72.4526,       649,
   72.4728,       625,
    72.493,       622,
   72.5132,       595,
   72.5333,       583,
   72.5535,       624,
   72.5737,       606,
   72.5938,       630,
    72.614,       648,
   72.6342,       645,
   72.6543,       661,
   72.6745,       683,
   72.6947,       612,
   72.7148,       678,
    72.735,       607,
   72.7552,       621,
   72.7753,       632,
   72.7955,       597,
   72.8157,       646,
   72.8358,       601,
    72.856,       646,
   72.8762,       657,
   72.8964,       659,
   72.9165,       650,
   72.9367,       652,
   72.9569,       625,
    72.977,       591,
   72.9972,       622,
   73.0174,       645,
   73.0375,       650,
   73.0577,       645,
   73.0779,       625,
    73.098,       659,
   73.1182,       644,
   73.1384,       665,
   73.1585,       641,
   73.1787,       665,
   73.1989,       688,
   73.2191,       670,
   73.2392,       686,
   73.2594,       676,
   73.2796,       684,
   73.2997,       674,
   73.3199,       746,
   73.3401,       698,
   73.3602,       685,
   73.3804,       707,
   73.4006,       707,
   73.4207,       716,
   73.4409,       691,
   73.4611,       723,
   73.4812,       716,
   73.5014,       749,
   73.5216,       726,
   73.5417,       738,
   73.5619,       705,
   73.5821,       748,
   73.6023,       767,
   73.6224,       788,
   73.6426,       808,
   73.6628,       811,
   73.6829,       841,
   73.7031,       830,
   73.7233,       841,
   73.7434,       858,
   73.7636,       923,
   73.7838,       932,
   73.8039,       959,
   73.8241,       996,
   73.8443,      1040,
   73.8644,      1017,
   73.8846,      1067,
   73.9048,      1119,
   73.9249,      1119,
   73.9451,      1177,
   73.9653,      1182,
   73.9855,      1268,
   74.0056,      1310,
   74.0258,      1325,
    74.046,      1401,
   74.0661,      1498,
   74.0863,      1516,
   74.1065,      1463,
   74.1266,      1522,
   74.1468,      1549,
    74.167,      1535,
   74.1871,      1555,
   74.2073,      1538,
   74.2275,      1588,
   74.2476,      1477,
   74.2678,      1544,
    74.288,      1486,
   74.3082,      1466,
   74.3283,      1480,
   74.3485,      1408,
   74.3687,      1328,
   74.3888,      1350,
    74.409,      1262,
   74.4292,      1265,
   74.4493,      1254,
   74.4695,      1175,
   74.4897,      1230,
   74.5098,      1062,
     74.53,      1080,
   74.5502,      1035,
   74.5703,      1031,
   74.5905,      1013,
   74.6107,       980,
   74.6308,       937,
    74.651,       908,
   74.6712,       899,
   74.6914,       843,
   74.7115,       845,
   74.7317,       856,
   74.7519,       817,
    74.772,       784,
   74.7922,       783,
   74.8124,       740,
   74.8325,       732,
   74.8527,       750,
   74.8729,       762,
    74.893,       791,
   74.9132,       695,
   74.9334,       726,
   74.9535,       699,
   74.9737,       724,
   74.9939,       699,
    75.014,       683,
   75.0342,       680,
   75.0544,       692,
   75.0746,       714,
   75.0947,       682,
   75.1149,       732,
   75.1351,       668,
   75.1552,       640,
   75.1754,       655,
   75.1956,       659,
   75.2157,       678,
   75.2359,       679,
   75.2561,       679,
   75.2762,       645,
   75.2964,       669,
   75.3166,       705,
   75.3367,       688,
   75.3569,       627,
   75.3771,       667,
   75.3973,       671,
   75.4174,       650,
   75.4376,       596,
   75.4578,       655,
   75.4779,       634,
   75.4981,       621,
   75.5183,       624,
   75.5384,       597,
   75.5586,       591,
   75.5788,       660,
   75.5989,       616,
   75.6191,       633,
   75.6393,       645,
   75.6594,       629,
   75.6796,       599,
   75.6998,       626,
   75.7199,       631,
   75.7401,       622,
   75.7603,       636,
   75.7805,       563,
   75.8006,       702,
   75.8208,       611,
    75.841,       676,
   75.8611,       635,
   75.8813,       658,
   75.9015,       627,
   75.9216,       653,
   75.9418,       653,
    75.962,       684,
   75.9821,       629,
   76.0023,       649,
   76.0225,       633,
   76.0426,       606,
   76.0628,       638,
    76.083,       669,
   76.1032,       620,
   76.1233,       628,
   76.1435,       578,
   76.1637,       629,
   76.1838,       657,
    76.204,       654,
   76.2242,       591,
   76.2443,       611,
   76.2645,       568,
   76.2847,       624,
   76.3048,       631,
    76.325,       620,
   76.3452,       608,
   76.3653,       610,
   76.3855,       573,
   76.4057,       609,
   76.4258,       666,
    76.446,       656,
   76.4662,       638,
   76.4864,       633,
   76.5065,       657,
   76.5267,       639,
   76.5469,       644,
    76.567,       656,
   76.5872,       650,
   76.6074,       631,
   76.6275,       587,
   76.6477,       574,
   76.6679,       569,
    76.688,       654,
   76.7082,       621,
   76.7284,       665,
   76.7485,       628,
   76.7687,       610,
   76.7889,       623,
    76.809,       630,
   76.8292,       611,
   76.8494,       607,
   76.8696,       588,
   76.8897,       630,
   76.9099,       610,
   76.9301,       571,
   76.9502,       624,
   76.9704,       610,
   76.9906,       622,
   77.0107,       641,
   77.0309,       613,
   77.0511,       579,
   77.0712,       598,
   77.0914,       609,
   77.1116,       608,
   77.1317,       613,
   77.1519,       574,
   77.1721,       612,
   77.1923,       647,
   77.2124,       638,
   77.2326,       606,
   77.2528,       591,
   77.2729,       608,
   77.2931,       605,
   77.3133,       602,
   77.3334,       625,
   77.3536,       581,
   77.3738,       586,
   77.3939,       632,
   77.4141,       637,
   77.4343,       611,
   77.4544,       579,
   77.4746,       617,
   77.4948,       639,
   77.5149,       595,
   77.5351,       587,
   77.5553,       618,
   77.5755,       624,
   77.5956,       607,
   77.6158,       608,
    77.636,       602,
   77.6561,       584,
   77.6763,       642,
   77.6965,       589,
   77.7166,       640,
   77.7368,       599,
    77.757,       617,
   77.7771,       552,
   77.7973,       580,
   77.8175,       589,
   77.8376,       631,
   77.8578,       596,
    77.878,       601,
   77.8981,       621,
   77.9183,       580,
   77.9385,       637,
   77.9587,       596,
   77.9788,       603,
    77.999,       583,
