;RAW4.00
[RawHeader]
Date=11/26/2025
EstimatedTotalTime=426.6
FurtherDQLReading=0
HardwareIndicator=65519
MeasuredTotalTime=4.29503
MeasurementFlag=1
NumberOfMeasuredRanges=1
NumberOfRanges=1
Time=14:29:19

[VarInfo]
Type=USER
Flags=0
Value=Lab Manager

[VarInfo]
Type=SAMPLEID
Flags=0
Value=Commander Sample ID

[VarInfo]
Type=COMMENT
Flags=0
Value=

[VarInfo]
Type=UTF
Flags=0
Value=

[VarInfo]
Type=CREATOR
Flags=0
Value=V5Converter

[VarInfo]
Type=CREATOR_VERSION
Flags=0
Value=4.4.16.0

[HardwareConfiguration]
AbsorptionFactor=9999
ActivateAbsorber=0
Alpha1=1.5406
Alpha2=1.54439
AlphaAverage=1.54184
AlphaRatio=0.5
Analyzer=0
Anode=Cu
AntiScatteringSlit=9999
BeamOpticsFlags=0
Beta=1.39222
BetaRelativeIntensity=0
DeactivateAbsorber=0
DetectorSlit=9999
DivergenceSlit=9999
GoniometerControl=0
GoniometerDiameter=282
GoniometerModel=256
GoniometerStage=7
Monochromator=0
NearSampleSlit=9999
PrimarySollerSlit=9999
SampleChanger=0
SecondSollerSlit=9999
SynchronousAxis=0
ThinFilmAttachment=9999
WaveUnit=A

[RangeHeader]
ActuallyUsedLambda=1.54184
AdditionalDetectorMask=257
DataRecordLength=4
DelayTime=0
DisplayPlaneNumber=0
EstimatedScanTime=427
ExtraParametersMask=0
GeneratorCurrent=10
GeneratorVoltage=30
Increment=0.0201685
Increment3=0
NumberOfCompletedData=1885
NumberOfCounts=1
NumberOfDetectors=0
NumberOfDrives=3
NumberOfEncoderDrives=0
NumberOfMeasuredData=1885
NumberOfVaryingParameters=0
RangeStartTime=0
RotationSpeed=0
ScanMode=1
ScanType=Locked Coupled
SimulatedMeasConditions=0
SlitChangerIn=0
SmootingWidth=0
Start=40.0015
Steps=1885
SynchronousRotation=0
Time=33

[VarInfo]
Type=PSD_DISCRIM
Flags=0
Value=0.11;0.5

[VarInfo]
Type=OPTICS_V5
Flags=0
Value=H4sIAAAAAAAEAO1d63KjOhJ+Fda/zqmtBIPtXKaITzm2J+OaOHbFTnKmtrZcBORYZzC4AOey//d99hl2X2x1QViIS8C3JBN+TCaodWm6+2vUUkfS/nieW9IjcD3o2GcV5bBakYBtOCa0H84qS396oBxV/mhqF44NnTnwgdt25gvHBrbf0X1dQq1t78uzB88qM99ffJHlp6enw6faoeM+yGq1qsh/9i9HxgzM9QNoe75uG6AStjJfb1WRbqEH7y1wpc/BWWXFR0joAM9w4cInL/Bj4UHLsSW+3oXrLBc9NBZ6t3Pgojcb3P8FDH+o+7OzitwBj9AAMt+CrxUfl1Lblu55QRehTORzoM8XqLDt2L4ObeBy/coBc6yHluEvdYtxoR6o1ePT02O5h8TkLue4tzhrTW2EZGjqqBswQr3oFvyXjl+9OdUtD2hyGln7c259hcAyrwHqHhq4EDFpA/KbJ8lNjfKD1ToCFipvdm00JDA1OUbR6Btwou9Ab2HpL824AjQ5tXK8m+bF4OrHhPzodEft64TGrBVWDOsoPhpP1bBWhrxWvISy1r0hIUP+4r8skMLHrm78xG8sGODQhXPdfSHkZBMMakgD9GxISBvSeHkPOIFIQeOidilHx44baRI9r5mSRmyEDSxUYBJZ3blu/xy4JnCvAfYzAL0wsdX3b8s5NVnMwIfj6+8T9KPV/l7IxHm5Jhp5z0OvBh9BE+kGCS98DAk920dCZMIVSikeHA9SJulgmhwp1bAq2ZMXfZT4B2LSAxc+QFu3ogSlwl6OWi7Ssb/0moPwnSLFGmsYPPedJdIj0qJQrgWE0MJ5JCOdEXICmjFtjmnJUA7J0tRxpRHQLUBtYA3AytxYcejGiMm4JZa46kmmLG0LrhEWBa3xcus++8A2MZDfDYZpCWdMkQKtj5nwHfcltGVFk+OFGseMJxH2qHoYWND7cnJosmJN5ku1uCnh1+H65qyTKx3Y545jAR1NEG5s6BPpdiDSG56bXcI59IlYwiKvWdVk7knrgKm+tPxb3VoCboigVyQ96CPXTshnFewlKri/oQta5l9LD8GnYEuZYx67mbHTJoqe6ZblPK0cjVCOarZnwPgJzFUVVqC1ESPOHKsWvx33pNH5Zl7erhEyxkg2xVq1lr7TdoHug6HrLIDrvzAWEyiR9/eIRfdMhLKr5fweuE21rslCEdaQRS08UPF//xMyUSUc9B0TNG8Quqbos4xMnTwz90Y+PzEHluy7tuWt5HgP/ND5vNXOHBXjLvaN2aNbYuh5A79Evm3IJvErCL6JJ23LP418rD3OPSHRTOHDEjnla/gw85sIdabECnU0BoKwUKWYS+vrz5fAfvBnTbXRwKJhj2nOjrJISkNktZevObqMVm/q5DL4SnFwGS02cm5pFninPwKqkpa1mOmKYIUieVuWOJh2nCVqyWzxf//ehzWm2Nxw9uJBQ7dIeQJnTA/KYaNePXrNFtfo7ca2MPfItOjcf/WMZelYS+paugfVBtErK9H60Ibz5bx5oBwenx4fndaUWv3kSK0pjePu32vVE4S4oAZGIvklvWZQ4W0Rs4b0UpC0Rk/7QJiajTD10yOsXjvdJsRYdyXGNhLfFkDGuto1yh6Bqz+IoV6M/ulxppzUt4kz1l2Js43EtwWcsa52jLNz4OupIMPET46w2qmqqttD2Kq7EmEbiW9jhK262jHCrvGaRirECHVXGHuvCFutth02NsJWrKMSVWsKbh08xTrZCZK+OsbSG7gQ2D5ZHRSgJJK3tspG1g4H057tH9XfH6CibEVXr/OjKbkXhfRCBYDfqOeDOWLs0nmABl3VvJn0rm5bl73OpP2tN9TkFYkJfAye/WbPftQtiMQzg4uVjCJaIvW07+CFjI1lEf6uyTEWsnm67F2lsnIJbSARW0kbWtlk6OEgY+yhA20/e3B1k8GZLoaD0auqCHeKD6S58wgk35HmwJjpNrYKCTmTxd/SeKxl8/ienF2WXefzdFk9bOTm6N5Lz546UqiqhAVciZbr3FOQY3BWIVUkVBrdJr+ZtC6H31rRcrGRhEeyyEjkXXKxo0bYURPZUVPYUbPYUQuzEywL8PxEyoQBQloib5PW7UUWe0HrokySmCrg8D78PeybkkWGzrvjVjIvuH4+FiIbUQEDqBXeyxN46LJSkY3uZbffvRqnSMV2TCAFbaXVSDlkQmfBvNq4EkHsASVZZdetcW+QpTTSOp+8YlOLgL9pYnk4ToQicvl10J4MrpMZJONJkeZyfMe6Ed+xvgA2skTfcYU8TFacvPmcsQFLZ8dr7r82tXQiP3O7dSw/voYXlO4q5vl5u6WEjcypLxqFfRNqVSHyCL4FKaFHctihVBMCjFp1f7FErbF+MBEXRsEvZLo55TW19tJ1sT+LmlpQuitTm7f2YWpolHD6sQ1TaySFsh/E0uKy2LulDZ0nkgHOmxQp25WV3aUEnW+xcHMnRJr5lluqhymm+EkWW+4491hde7Ul3ssWbV9+7YtfJA0UTQyNGXBfyVbbPA8ud74bklUw60j9YgWfilQ/I4dzraYmBmuZ2QhiKJW9qxqLdLI3h6IxR/YytzAXT1vD42MIIXVJnC4nR8cylyaJ7OZRhxZeJcCPHu2eWH2ZQFkmUJYJlGUCZZlA+fE2xcsEyvezJV4mUP6aCCsTKN8TxsoEyl8VZ2UC5XvCWZlA+ashrEygfE8IKxMoywTKMoGyTKAsEyjLBMoygbJMoCwTKMsEyjKBskygLBMoywTKMoGyTKAsEyjLBMoygbJMoHzr+KNMoCwTKD9tAiXLkUS/iumT7KzT+Cmg4tm7GScqd+cL/4UkG4arGcVOT+72h4PRhP4scnoyGTg0xcTzk2U+BzLzcGMl7XBjde+HGw8WbefceR5MR45lATfhiGNKyDjkmKsg/WbotmTQQ8ElNJZEifQE7N/XgX9k+LhXSSBnuYaE6hunwkb7FPSZfOxxRGTIPPKL8PePe2KymphYK0bAR+scevtxXAin6Q2diJrmRGpv50S+wmdgEkNlcw/RmVjQz3IliCz1U2CAaRv4kdXICV5EJGb6ELHy5h6E61FQZYr/YA2o98gntQ/sOmq5XMfxeudlE7OmVzSsTJpYMhZe0hcRy1SR/jGf/zPDjH/DR/7fA2QfErQ9hAVgol98R9I5hWWaMq5mhBds4KeJUp0oaQYcIb5mwIVtN52ZmPP5qH/5US30lx930PRnYm4HLtvZktP8/WxBxzgL44DNsuvjPeVdZqh+7nWGuODWWWeI97KTtI5vABumgB1a+LnBszXslNBZz+i3gpzt3wSirjOzGenzhQXuZgBYY/QC/KUgIkkjH65UJ0ChmfamMj+F+lCxGJtFbxiJ1dIisfpGkRjhMR6HvT9h3thLD5hkeHHgLInKwm1g17oJl16CldWVYB+fXrg3mE494KdZfesZevz3Iay2B1ceYybnbh1ywVU1LSlVPTypn6qNRkNN8LvHjcOTRv24dqQqvK8VhNAM7mETbitc+w7DEUCRgJl9i2FYh7v9roNCXwNnMmzhLkORh4SYKLFGsfsMwz42ifVFRj70nYaF9FrM/4zwzYaj4jcbRuW787sNw+F2cbvhyRss3uHlOks3wMyxzMQtgMsX+xm8pBxzcfnj6s/ujy654bCjSsOZ7olX4OYEsRyOEwezQMpa3mDWKOO8X3k4Wj2jProvYAvX6KYzLmrzl7v28CTPUlxNiU9Yi8wL0ecUu0XdWrmWfniNJk2pxn6HJHazGl4xZ9PpjyfkXwFHw4ba6R6gstmscZebgP09bgIKCIswkLYN2N/zNmAmj6JSs3YC+59rJ1Cp53Ii1c+wFVhGSkUjpbRAqXF4dHrSUJRqPWmBqqEcHldP68dqfQeB0sontAHGieA9hcKI4+SmzLSadMAw70kjnLfkkW8dVkPLMIDnOS4E3hoRE+Mi7j2jlLwRUvyl1/ekrIcPHRqtqcpiLudicNWekB9FHA7lZ+eh0Ri4qHQnkdHp3mdFwxkkShPAfO0EGXBRYgTUqKlErdE1Wb0CGJXZGHSdNqGDKCsJ1TJnP6vqMuJUZpxuDuAUxgVFpsREEgUYMFu+rxszPNBZ5WDPRwluc5pzmitr4SQ+y+l5TBQhKMMCjfMcZLfIWj48ALPjYkzSv8ZE3eHvWs9sIu2S3oNHTCEVRwtgwGnwt6KsUpyC4BLvvcgEK46DYs5u+K03mpAfRZxdFKHbnGBVi0yvQisOP5lEYfRDEPwf22IqXU7pckqXI7qcECvsd+8VLsZPznhGTjB6jZVIzZz8ZA+dc9yig6ZEJvFifFQxXo8YAd9H0PIkfi6GHAXNPKxILbzB7vVR6AbplI5NtLGOuVT/5i2e1Rn4EFu+VFtBkewhB6uqmiyUa3yqI/WAkWUTj/6JxSqYYK6D6Pv/u9RXv2COAAA=

[PSD]
ActualTwoTheta=9999
FirstUsedChannel=0
FixedPSD=0
PSDOpening=4.99171
PSDType=5

[Drive]
DriveFlags=1
DriveName=2Theta
DriveNumber=2
DriveOffset=0
OffsetIndex=0
OscillationAmplitude=0
OscillationSpeed=0
StartPosition=40.0015

[Drive]
DriveFlags=1
DriveName=Theta
DriveNumber=1
DriveOffset=0
OffsetIndex=0
OscillationAmplitude=0
OscillationSpeed=0
StartPosition=20.0007

[Drive]
DriveFlags=1
DriveName=Phi
DriveNumber=3
DriveOffset=0
OffsetIndex=0
OscillationAmplitude=0
OscillationSpeed=0
StartPosition=0

[Data]
     Angle,       PSD,
   40.0015,       678,
   40.0217,       646,
   40.0418,       668,
    40.062,       659,
   40.0822,       639,
   40.1023,       655,
   40.1225,       607,
   40.1427,       637,
   40.1628,       644,
    40.183,       643,
   40.2032,       675,
   40.2233,       651,
   40.2435,       629,
   40.2637,       641,
   40.2838,       611,
    40.304,       638,
   40.3242,       657,
   40.3444,       656,
   40.3645,       640,
   40.3847,       667,
   40.4049,       651,
    40.425,       663,
   40.4452,       658,
   40.4654,       628,
   40.4855,       647,
   40.5057,       676,
   40.5259,       629,
    40.546,       616,
   40.5662,       621,
   40.5864,       610,
   40.6065,       620,
   40.6267,       640,
   40.6469,       619,
   40.6671,       594,
   40.6872,       600,
   40.7074,       594,
   40.7276,       642,
   40.7477,       666,
   40.7679,       675,
   40.7881,       646,
   40.8082,       645,
   40.8284,       588,
   40.8486,       638,
   40.8687,       605,
   40.8889,       627,
   40.9091,       597,
   40.9292,       657,
   40.9494,       629,
   40.9696,       650,
   40.9897,       687,
   41.0099,       674,
   41.0301,       641,
   41.0503,       590,
   41.0704,       612,
   41.0906,       620,
   41.1108,       649,
   41.1309,       636,
   41.1511,       704,
   41.1713,       641,
   41.1914,       637,
   41.2116,       629,
   41.2318,       657,
   41.2519,       613,
   41.2721,       670,
   41.2923,       643,
   41.3124,       587,
   41.3326,       647,
   41.3528,       661,
   41.3729,       643,
   41.3931,       669,
   41.4133,       609,
   41.4335,       656,
   41.4536,       655,
   41.4738,       632,
    41.494,       650,
   41.5141,       637,
   41.5343,       659,
   41.5545,       688,
   41.5746,       608,
   41.5948,       611,
    41.615,       657,
   41.6351,       655,
   41.6553,       640,
   41.6755,       691,
   41.6956,       694,
   41.7158,       685,
    41.736,       675,
   41.7562,       677,
   41.7763,       648,
   41.7965,       682,
   41.8167,       668,
   41.8368,       700,
    41.857,       669,
   41.8772,       705,
   41.8973,       701,
   41.9175,       714,
   41.9377,       750,
   41.9578,       747,
    41.978,       738,
   41.9982,       725,
   42.0183,       718,
   42.0385,       781,
   42.0587,       767,
   42.0788,       801,
    42.099,       760,
   42.1192,       793,
   42.1394,       717,
   42.1595,       815,
   42.1797,       723,
   42.1999,       794,
     42.22,       761,
   42.2402,       773,
   42.2604,       797,
   42.2805,       804,
   42.3007,       799,
   42.3209,       773,
    42.341,       784,
   42.3612,       762,
   42.3814,       830,
   42.4015,       722,
   42.4217,       828,
   42.4419,       795,
    42.462,       817,
   42.4822,       773,
   42.5024,       814,
   42.5226,       772,
   42.5427,       810,
   42.5629,       811,
   42.5831,       809,
   42.6032,       788,
   42.6234,       781,
   42.6436,       817,
   42.6637,       802,
   42.6839,       780,
   42.7041,       821,
   42.7242,       799,
   42.7444,       794,
   42.7646,       837,
   42.7847,       859,
   42.8049,       802,
   42.8251,       835,
   42.8453,       827,
   42.8654,       849,
   42.8856,       881,
   42.9058,       875,
   42.9259,       851,
   42.9461,       926,
   42.9663,       929,
   42.9864,       948,
   43.0066,      1051,
   43.0268,      1078,
   43.0469,      1167,
   43.0671,      1147,
   43.0873,      1258,
   43.1074,      1189,
   43.1276,      1227,
   43.1478,      1343,
   43.1679,      1479,
   43.1881,      1423,
   43.2083,      1631,
   43.2285,      1864,
   43.2486,      2004,
   43.2688,      2150,
    43.289,      2319,
   43.3091,      2461,
   43.3293,      2808,
   43.3495,      3423,
   43.3696,      4841,
   43.3898,      8385,
     43.41,     18001,
   43.4301,     39281,
   43.4503,     60305,
   43.4705,     53034,
   43.4906,     28782,
   43.5108,     15611,
    43.531,     17128,
   43.5511,     27117,
   43.5713,     31928,
   43.5915,     22815,
   43.6117,     11269,
   43.6318,      5507,
    43.652,      3543,
   43.6722,      2746,
   43.6923,      2338,
   43.7125,      2074,
   43.7327,      1861,
   43.7528,      1764,
    43.773,      1619,
   43.7932,      1409,
   43.8133,      1343,
   43.8335,      1268,
   43.8537,      1163,
   43.8738,      1146,
    43.894,      1099,
   43.9142,      1053,
   43.9344,       928,
   43.9545,      1004,
   43.9747,       906,
   43.9949,       919,
    44.015,       888,
   44.0352,       858,
   44.0554,       858,
   44.0755,       806,
   44.0957,       870,
   44.1159,       787,
    44.136,       831,
   44.1562,       855,
   44.1764,       808,
   44.1965,       787,
   44.2167,       810,
   44.2369,       778,
    44.257,       845,
   44.2772,       762,
   44.2974,       784,
   44.3176,       846,
   44.3377,       788,
   44.3579,       769,
   44.3781,       785,
   44.3982,       798,
   44.4184,       784,
   44.4386,       789,
   44.4587,       814,
   44.4789,       746,
   44.4991,       796,
   44.5192,       758,
   44.5394,       736,
   44.5596,       773,
   44.5797,       783,
   44.5999,       752,
   44.6201,       768,
   44.6402,       736,
   44.6604,       742,
   44.6806,       730,
   44.7008,       762,
   44.7209,       768,
   44.7411,       747,
   44.7613,       723,
   44.7814,       760,
   44.8016,       716,
   44.8218,       748,
   44.8419,       803,
   44.8621,       742,
   44.8823,       730,
   44.9024,       715,
   44.9226,       756,
   44.9428,       729,
   44.9629,       755,
   44.9831,       733,
   45.0033,       741,
   45.0235,       662,
   45.0436,       710,
   45.0638,       756,
    45.084,       769,
   45.1041,       728,
   45.1243,       682,
   45.1445,       752,
   45.1646,       721,
   45.1848,       708,
    45.205,       735,
   45.2251,       757,
   45.2453,       751,
   45.2655,       745,
   45.2856,       770,
   45.3058,       716,
    45.326,       736,
   45.3461,       701,
   45.3663,       666,
   45.3865,       724,
   45.4067,       757,
   45.4268,       740,
    45.447,       757,
   45.4672,       745,
   45.4873,       699,
   45.5075,       719,
   45.5277,       786,
   45.5478,       749,
    45.568,       729,
   45.5882,       741,
   45.6083,       682,
   45.6285,       696,
   45.6487,       731,
   45.6688,       684,
    45.689,       715,
   45.7092,       732,
   45.7294,       681,
   45.7495,       730,
   45.7697,       706,
   45.7899,       666,
     45.81,       691,
   45.8302,       675,
   45.8504,       771,
   45.8705,       666,
   45.8907,       690,
   45.9109,       760,
    45.931,       730,
   45.9512,       710,
   45.9714,       684,
   45.9915,       717,
   46.0117,       709,
   46.0319,       712,
    46.052,       648,
   46.0722,       733,
   46.0924,       754,
   46.1126,       702,
   46.1327,       731,
   46.1529,       734,
   46.1731,       685,
   46.1932,       664,
   46.2134,       671,
   46.2336,       727,
   46.2537,       760,
   46.2739,       751,
   46.2941,       730,
   46.3142,       681,
   46.3344,       723,
   46.3546,       712,
   46.3747,       662,
   46.3949,       730,
   46.4151,       699,
   46.4352,       676,
   46.4554,       666,
   46.4756,       690,
   46.4958,       691,
   46.5159,       711,
   46.5361,       679,
   46.5563,       725,
   46.5764,       661,
   46.5966,       675,
   46.6168,       677,
   46.6369,       699,
   46.6571,       690,
   46.6773,       708,
   46.6974,       725,
   46.7176,       707,
   46.7378,       677,
   46.7579,       705,
   46.7781,       702,
   46.7983,       659,
   46.8185,       688,
   46.8386,       679,
   46.8588,       682,
    46.879,       674,
   46.8991,       657,
   46.9193,       715,
   46.9395,       672,
   46.9596,       683,
   46.9798,       653,
        47,       680,
   47.0201,       702,
   47.0403,       742,
   47.0605,       656,
   47.0806,       726,
   47.1008,       634,
    47.121,       687,
   47.1411,       680,
   47.1613,       697,
   47.1815,       676,
   47.2017,       624,
   47.2218,       673,
    47.242,       707,
   47.2622,       658,
   47.2823,       637,
   47.3025,       687,
   47.3227,       650,
   47.3428,       716,
    47.363,       670,
   47.3832,       676,
   47.4033,       676,
   47.4235,       724,
   47.4437,       705,
   47.4638,       677,
    47.484,       709,
   47.5042,       680,
   47.5243,       667,
   47.5445,       659,
   47.5647,       699,
   47.5849,       674,
    47.605,       674,
   47.6252,       681,
   47.6454,       734,
   47.6655,       652,
   47.6857,       700,
   47.7059,       691,
    47.726,       699,
   47.7462,       666,
   47.7664,       654,
   47.7865,       730,
   47.8067,       675,
   47.8269,       671,
    47.847,       685,
   47.8672,       665,
   47.8874,       715,
   47.9076,       648,
   47.9277,       650,
   47.9479,       673,
   47.9681,       676,
   47.9882,       632,
   48.0084,       667,
   48.0286,       666,
   48.0487,       644,
   48.0689,       684,
   48.0891,       695,
   48.1092,       703,
   48.1294,       675,
   48.1496,       683,
   48.1697,       690,
   48.1899,       700,
   48.2101,       685,
   48.2302,       661,
   48.2504,       685,
   48.2706,       622,
   48.2908,       688,
   48.3109,       680,
   48.3311,       643,
   48.3513,       654,
   48.3714,       683,
   48.3916,       678,
   48.4118,       670,
   48.4319,       700,
   48.4521,       700,
   48.4723,       719,
   48.4924,       672,
   48.5126,       664,
   48.5328,       676,
   48.5529,       697,
   48.5731,       703,
   48.5933,       673,
   48.6134,       685,
   48.6336,       656,
   48.6538,       646,
    48.674,       710,
   48.6941,       686,
   48.7143,       659,
   48.7345,       684,
   48.7546,       728,
   48.7748,       679,
    48.795,       733,
   48.8151,       710,
   48.8353,       674,
   48.8555,       722,
   48.8756,       676,
   48.8958,       703,
    48.916,       666,
   48.9361,       678,
   48.9563,       679,
   48.9765,       695,
   48.9967,       714,
   49.0168,       763,
    49.037,       659,
   49.0572,       697,
   49.0773,       730,
   49.0975,       677,
   49.1177,       731,
   49.1378,       715,
    49.158,       709,
   49.1782,       683,
   49.1983,       716,
   49.2185,       713,
   49.2387,       697,
   49.2588,       674,
    49.279,       713,
   49.2992,       687,
   49.3193,       712,
   49.3395,       687,
   49.3597,       703,
   49.3799,       708,
      49.4,       647,
   49.4202,       678,
   49.4404,       700,
   49.4605,       699,
   49.4807,       717,
   49.5009,       699,
    49.521,       651,
   49.5412,       707,
   49.5614,       681,
   49.5815,       756,
   49.6017,       683,
   49.6219,       704,
    49.642,       699,
   49.6622,       674,
   49.6824,       716,
   49.7025,       686,
   49.7227,       701,
   49.7429,       688,
   49.7631,       705,
   49.7832,       703,
   49.8034,       683,
   49.8236,       663,
   49.8437,       716,
   49.8639,       735,
   49.8841,       735,
   49.9042,       646,
   49.9244,       704,
   49.9446,       757,
   49.9647,       738,
   49.9849,       712,
   50.0051,       726,
   50.0252,       696,
   50.0454,       741,
   50.0656,       722,
   50.0858,       801,
   50.1059,       790,
   50.1261,       816,
   50.1463,       763,
   50.1664,       817,
   50.1866,       825,
   50.2068,       893,
   50.2269,       841,
   50.2471,       869,
   50.2673,       927,
   50.2874,       995,
   50.3076,      1000,
   50.3278,      1014,
   50.3479,      1045,
   50.3681,      1140,
   50.3883,      1129,
   50.4084,      1160,
   50.4286,      1313,
   50.4488,      1441,
    50.469,      1701,
   50.4891,      2182,
   50.5093,      3121,
   50.5295,      4814,
   50.5496,      7923,
   50.5698,     10986,
     50.59,     11872,
   50.6101,      9473,
   50.6303,      6506,
   50.6505,      4501,
   50.6706,      4610,
   50.6908,      5573,
    50.711,      6651,
   50.7311,      6259,
   50.7513,      4744,
   50.7715,      3005,
   50.7917,      2188,
   50.8118,      1594,
    50.832,      1355,
   50.8522,      1249,
   50.8723,      1133,
   50.8925,      1042,
   50.9127,      1017,
   50.9328,       929,
    50.953,       910,
   50.9732,       888,
   50.9933,       880,
   51.0135,       799,
   51.0337,       771,
   51.0538,       789,
    51.074,       732,
   51.0942,       721,
   51.1143,       745,
   51.1345,       738,
   51.1547,       728,
   51.1749,       748,
    51.195,       746,
   51.2152,       734,
   51.2354,       738,
   51.2555,       727,
   51.2757,       740,
   51.2959,       751,
    51.316,       689,
   51.3362,       711,
   51.3564,       672,
   51.3765,       716,
   51.3967,       692,
   51.4169,       700,
    51.437,       731,
   51.4572,       638,
   51.4774,       713,
   51.4975,       711,
   51.5177,       707,
   51.5379,       705,
   51.5581,       670,
   51.5782,       720,
   51.5984,       687,
   51.6186,       669,
   51.6387,       699,
   51.6589,       710,
   51.6791,       664,
   51.6992,       655,
   51.7194,       707,
   51.7396,       614,
   51.7597,       663,
   51.7799,       657,
   51.8001,       681,
   51.8202,       685,
   51.8404,       617,
   51.8606,       656,
   51.8808,       679,
   51.9009,       674,
   51.9211,       670,
   51.9413,       681,
   51.9614,       637,
   51.9816,       633,
   52.0018,       633,
   52.0219,       671,
   52.0421,       691,
   52.0623,       648,
   52.0824,       738,
   52.1026,       658,
   52.1228,       672,
   52.1429,       627,
   52.1631,       677,
   52.1833,       634,
   52.2034,       669,
   52.2236,       657,
   52.2438,       670,
    52.264,       676,
   52.2841,       672,
   52.3043,       675,
   52.3245,       649,
   52.3446,       696,
   52.3648,       635,
    52.385,       714,
   52.4051,       681,
   52.4253,       633,
   52.4455,       683,
   52.4656,       687,
   52.4858,       635,
    52.506,       646,
   52.5261,       666,
   52.5463,       675,
   52.5665,       632,
   52.5866,       657,
   52.6068,       622,
    52.627,       655,
   52.6472,       720,
   52.6673,       682,
   52.6875,       636,
   52.7077,       634,
   52.7278,       641,
    52.748,       707,
   52.7682,       667,
   52.7883,       636,
   52.8085,       701,
   52.8287,       664,
   52.8488,       674,
    52.869,       685,
   52.8892,       654,
   52.9093,       646,
   52.9295,       647,
   52.9497,       673,
   52.9699,       640,
     52.99,       682,
   53.0102,       655,
   53.0304,       614,
   53.0505,       677,
   53.0707,       626,
   53.0909,       667,
    53.111,       656,
   53.1312,       620,
   53.1514,       615,
   53.1715,       639,
   53.1917,       652,
   53.2119,       672,
    53.232,       688,
   53.2522,       663,
   53.2724,       640,
   53.2925,       690,
   53.3127,       689,
   53.3329,       672,
   53.3531,       661,
   53.3732,       680,
   53.3934,       664,
   53.4136,       652,
   53.4337,       634,
   53.4539,       657,
   53.4741,       678,
   53.4942,       670,
   53.5144,       686,
   53.5346,       607,
   53.5547,       664,
   53.5749,       612,
   53.5951,       684,
   53.6152,       645,
   53.6354,       557,
   53.6556,       662,
   53.6757,       644,
   53.6959,       630,
   53.7161,       664,
   53.7363,       631,
   53.7564,       621,
   53.7766,       667,
   53.7968,       672,
   53.8169,       616,
   53.8371,       631,
   53.8573,       613,
   53.8774,       613,
   53.8976,       631,
   53.9178,       671,
   53.9379,       652,
   53.9581,       669,
   53.9783,       665,
   53.9984,       605,
   54.0186,       632,
   54.0388,       687,
    54.059,       667,
   54.0791,       680,
   54.0993,       683,
   54.1195,       670,
   54.1396,       671,
   54.1598,       632,
     54.18,       659,
   54.2001,       658,
   54.2203,       623,
   54.2405,       658,
   54.2606,       624,
   54.2808,       593,
    54.301,       617,
   54.3211,       641,
   54.3413,       626,
   54.3615,       673,
   54.3816,       648,
   54.4018,       666,
    54.422,       654,
   54.4422,       639,
   54.4623,       658,
   54.4825,       668,
   54.5027,       621,
   54.5228,       670,
    54.543,       611,
   54.5632,       616,
   54.5833,       618,
   54.6035,       653,
   54.6237,       661,
   54.6438,       607,
    54.664,       634,
   54.6842,       620,
   54.7043,       704,
   54.7245,       673,
   54.7447,       679,
   54.7648,       628,
    54.785,       636,
   54.8052,       651,
   54.8254,       611,
   54.8455,       641,
   54.8657,       699,
   54.8859,       613,
    54.906,       657,
   54.9262,       617,
   54.9464,       620,
   54.9665,       629,
   54.9867,       647,
   55.0069,       594,
    55.027,       640,
   55.0472,       635,
   55.0674,       653,
   55.0875,       627,
   55.1077,       659,
   55.1279,       655,
   55.1481,       606,
   55.1682,       689,
   55.1884,       594,
   55.2086,       671,
   55.2287,       657,
   55.2489,       708,
   55.2691,       674,
   55.2892,       655,
   55.3094,       621,
   55.3296,       650,
   55.3497,       659,
   55.3699,       699,
   55.3901,       675,
   55.4102,       654,
   55.4304,       621,
   55.4506,       614,
   55.4707,       645,
   55.4909,       628,
   55.5111,       662,
   55.5313,       628,
   55.5514,       643,
   55.5716,       651,
   55.5918,       654,
   55.6119,       621,
   55.6321,       667,
   55.6523,       648,
   55.6724,       667,
   55.6926,       627,
   55.7128,       641,
   55.7329,       623,
   55.7531,       637,
   55.7733,       650,
   55.7934,       639,
   55.8136,       651,
   55.8338,       636,
    55.854,       607,
   55.8741,       662,
   55.8943,       665,
   55.9145,       660,
   55.9346,       667,
   55.9548,       643,
    55.975,       665,
   55.9951,       633,
   56.0153,       609,
   56.0355,       629,
   56.0556,       610,
   56.0758,       611,
    56.096,       625,
   56.1161,       602,
   56.1363,       588,
   56.1565,       621,
   56.1766,       660,
   56.1968,       640,
    56.217,       662,
   56.2372,       614,
   56.2573,       629,
   56.2775,       666,
   56.2977,       675,
   56.3178,       637,
    56.338,       653,
   56.3582,       618,
   56.3783,       658,
   56.3985,       641,
   56.4187,       637,
   56.4388,       609,
    56.459,       617,
   56.4792,       629,
   56.4993,       596,
   56.5195,       629,
   56.5397,       604,
   56.5598,       639,
     56.58,       684,
   56.6002,       619,
   56.6204,       652,
   56.6405,       605,
   56.6607,       625,
   56.6809,       606,
    56.701,       605,
   56.7212,       636,
   56.7414,       644,
   56.7615,       600,
   56.7817,       622,
   56.8019,       636,
    56.822,       601,
   56.8422,       649,
   56.8624,       599,
   56.8825,       611,
   56.9027,       603,
   56.9229,       636,
   56.9431,       623,
   56.9632,       586,
   56.9834,       650,
   57.0036,       619,
   57.0237,       645,
   57.0439,       666,
   57.0641,       646,
   57.0842,       675,
   57.1044,       652,
   57.1246,       597,
   57.1447,       641,
   57.1649,       642,
   57.1851,       637,
   57.2052,       636,
   57.2254,       704,
   57.2456,       614,
   57.2657,       620,
   57.2859,       622,
   57.3061,       638,
   57.3263,       628,
   57.3464,       620,
   57.3666,       615,
   57.3868,       601,
   57.4069,       646,
   57.4271,       659,
   57.4473,       663,
   57.4674,       618,
   57.4876,       612,
   57.5078,       618,
   57.5279,       593,
   57.5481,       594,
   57.5683,       634,
   57.5884,       577,
   57.6086,       641,
   57.6288,       626,
   57.6489,       655,
   57.6691,       642,
   57.6893,       644,
   57.7095,       591,
   57.7296,       625,
   57.7498,       596,
     57.77,       590,
   57.7901,       647,
   57.8103,       653,
   57.8305,       669,
   57.8506,       644,
   57.8708,       676,
    57.891,       621,
   57.9111,       612,
   57.9313,       581,
   57.9515,       645,
   57.9716,       638,
   57.9918,       638,
    58.012,       627,
   58.0322,       635,
   58.0523,       629,
   58.0725,       594,
   58.0927,       614,
   58.1128,       634,
    58.133,       620,
   58.1532,       640,
   58.1733,       621,
   58.1935,       662,
   58.2137,       617,
   58.2338,       626,
    58.254,       654,
   58.2742,       595,
   58.2943,       618,
   58.3145,       649,
   58.3347,       649,
   58.3548,       650,
    58.375,       592,
   58.3952,       635,
   58.4154,       643,
   58.4355,       620,
   58.4557,       655,
   58.4759,       629,
    58.496,       623,
   58.5162,       668,
   58.5364,       669,
   58.5565,       634,
   58.5767,       563,
   58.5969,       644,
    58.617,       609,
   58.6372,       642,
   58.6574,       610,
   58.6775,       634,
   58.6977,       591,
   58.7179,       608,
    58.738,       607,
   58.7582,       612,
   58.7784,       641,
   58.7986,       635,
   58.8187,       609,
   58.8389,       661,
   58.8591,       647,
   58.8792,       628,
   58.8994,       641,
   58.9196,       623,
   58.9397,       652,
   58.9599,       602,
   58.9801,       639,
   59.0002,       623,
   59.0204,       605,
   59.0406,       595,
   59.0607,       615,
   59.0809,       642,
   59.1011,       543,
   59.1213,       658,
   59.1414,       660,
   59.1616,       616,
   59.1818,       586,
   59.2019,       603,
   59.2221,       607,
   59.2423,       601,
   59.2624,       652,
   59.2826,       635,
   59.3028,       607,
   59.3229,       592,
   59.3431,       622,
   59.3633,       571,
   59.3834,       623,
   59.4036,       592,
   59.4238,       654,
   59.4439,       578,
   59.4641,       607,
   59.4843,       618,
   59.5045,       652,
   59.5246,       676,
   59.5448,       614,
    59.565,       604,
   59.5851,       614,
   59.6053,       601,
   59.6255,       611,
   59.6456,       634,
   59.6658,       639,
    59.686,       626,
   59.7061,       629,
   59.7263,       607,
   59.7465,       605,
   59.7666,       557,
   59.7868,       612,
    59.807,       606,
   59.8271,       601,
   59.8473,       621,
   59.8675,       585,
   59.8877,       599,
   59.9078,       584,
    59.928,       625,
   59.9482,       627,
   59.9683,       625,
   59.9885,       659,
   60.0087,       615,
   60.0288,       619,
    60.049,       636,
   60.0692,       613,
   60.0893,       577,
   60.1095,       625,
   60.1297,       647,
   60.1498,       657,
     60.17,       642,
   60.1902,       589,
   60.2104,       631,
   60.2305,       600,
   60.2507,       667,
   60.2709,       607,
    60.291,       642,
   60.3112,       578,
   60.3314,       579,
   60.3515,       585,
   60.3717,       642,
   60.3919,       628,
    60.412,       614,
   60.4322,       656,
   60.4524,       630,
   60.4725,       658,
   60.4927,       588,
   60.5129,       612,
    60.533,       620,
   60.5532,       578,
   60.5734,       663,
   60.5936,       565,
   60.6137,       630,
   60.6339,       618,
   60.6541,       614,
   60.6742,       615,
   60.6944,       639,
   60.7146,       637,
   60.7347,       641,
   60.7549,       620,
   60.7751,       588,
   60.7952,       585,
   60.8154,       608,
   60.8356,       641,
   60.8557,       637,
   60.8759,       606,
   60.8961,       676,
   60.9163,       606,
   60.9364,       615,
   60.9566,       590,
   60.9768,       634,
   60.9969,       622,
   61.0171,       603,
   61.0373,       602,
   61.0574,       611,
   61.0776,       633,
   61.0978,       622,
   61.1179,       622,
   61.1381,       600,
   61.1583,       643,
   61.1784,       580,
   61.1986,       615,
   61.2188,       626,
   61.2389,       619,
   61.2591,       602,
   61.2793,       656,
   61.2995,       606,
   61.3196,       667,
   61.3398,       593,
     61.36,       651,
   61.3801,       652,
   61.4003,       619,
   61.4205,       632,
   61.4406,       646,
   61.4608,       601,
    61.481,       614,
   61.5011,       614,
   61.5213,       611,
   61.5415,       677,
   61.5616,       617,
   61.5818,       665,
    61.602,       596,
   61.6221,       613,
   61.6423,       573,
   61.6625,       658,
   61.6827,       639,
   61.7028,       599,
    61.723,       623,
   61.7432,       596,
   61.7633,       625,
   61.7835,       637,
   61.8037,       595,
   61.8238,       596,
    61.844,       606,
   61.8642,       633,
   61.8843,       671,
   61.9045,       627,
   61.9247,       552,
   61.9448,       606,
    61.965,       641,
   61.9852,       628,
   62.0054,       615,
   62.0255,       605,
   62.0457,       624,
   62.0659,       631,
    62.086,       648,
   62.1062,       678,
   62.1264,       560,
   62.1465,       622,
   62.1667,       589,
   62.1869,       590,
    62.207,       630,
   62.2272,       620,
   62.2474,       672,
   62.2675,       597,
   62.2877,       639,
   62.3079,       590,
    62.328,       631,
   62.3482,       641,
   62.3684,       591,
   62.3886,       574,
   62.4087,       583,
   62.4289,       601,
   62.4491,       614,
   62.4692,       631,
   62.4894,       622,
   62.5096,       658,
   62.5297,       621,
   62.5499,       570,
   62.5701,       695,
   62.5902,       621,
   62.6104,       624,
   62.6306,       628,
   62.6507,       609,
   62.6709,       645,
   62.6911,       582,
   62.7112,       635,
   62.7314,       618,
   62.7516,       620,
   62.7718,       640,
   62.7919,       635,
   62.8121,       642,
   62.8323,       579,
   62.8524,       612,
   62.8726,       603,
   62.8928,       612,
   62.9129,       626,
   62.9331,       611,
   62.9533,       628,
   62.9734,       643,
   62.9936,       605,
   63.0138,       611,
   63.0339,       634,
   63.0541,       615,
   63.0743,       621,
   63.0945,       653,
   63.1146,       600,
   63.1348,       613,
    63.155,       607,
   63.1751,       605,
   63.1953,       651,
   63.2155,       598,
   63.2356,       649,
   63.2558,       639,
    63.276,       596,
   63.2961,       660,
   63.3163,       668,
   63.3365,       645,
   63.3566,       584,
   63.3768,       642,
    63.397,       627,
   63.4171,       626,
   63.4373,       598,
   63.4575,       594,
   63.4777,       630,
   63.4978,       608,
    63.518,       594,
   63.5382,       618,
   63.5583,       647,
   63.5785,       639,
   63.5987,       608,
   63.6188,       560,
    63.639,       584,
   63.6592,       615,
   63.6793,       612,
   63.6995,       615,
   63.7197,       613,
   63.7398,       598,
     63.76,       588,
   63.7802,       620,
   63.8003,       602,
   63.8205,       613,
   63.8407,       579,
   63.8609,       627,
    63.881,       602,
   63.9012,       626,
   63.9214,       605,
   63.9415,       624,
   63.9617,       624,
   63.9819,       623,
    64.002,       594,
   64.0222,       610,
   64.0424,       620,
   64.0625,       631,
   64.0827,       605,
   64.1029,       664,
    64.123,       643,
   64.1432,       600,
   64.1634,       605,
   64.1836,       639,
   64.2037,       612,
   64.2239,       624,
   64.2441,       651,
   64.2642,       631,
   64.2844,       627,
   64.3046,       573,
   64.3247,       575,
   64.3449,       611,
   64.3651,       631,
   64.3852,       573,
   64.4054,       613,
   64.4256,       630,
   64.4457,       621,
   64.4659,       626,
   64.4861,       595,
   64.5062,       611,
   64.5264,       627,
   64.5466,       634,
   64.5668,       601,
   64.5869,       654,
   64.6071,       584,
   64.6273,       626,
   64.6474,       631,
   64.6676,       634,
   64.6878,       640,
   64.7079,       615,
   64.7281,       651,
   64.7483,       623,
   64.7684,       649,
   64.7886,       615,
   64.8088,       621,
   64.8289,       609,
   64.8491,       608,
   64.8693,       602,
   64.8894,       619,
   64.9096,       633,
   64.9298,       598,
     64.95,       574,
   64.9701,       595,
   64.9903,       566,
   65.0105,       654,
   65.0306,       619,
   65.0508,       617,
    65.071,       598,
   65.0911,       606,
   65.1113,       596,
   65.1315,       584,
   65.1516,       603,
   65.1718,       632,
    65.192,       626,
   65.2121,       616,
   65.2323,       622,
   65.2525,       636,
   65.2727,       646,
   65.2928,       613,
    65.313,       593,
   65.3332,       563,
   65.3533,       613,
   65.3735,       599,
   65.3937,       601,
   65.4138,       590,
    65.434,       609,
   65.4542,       614,
   65.4743,       617,
   65.4945,       595,
   65.5147,       627,
   65.5348,       632,
    65.555,       566,
   65.5752,       582,
   65.5953,       640,
   65.6155,       654,
   65.6357,       606,
   65.6559,       586,
    65.676,       566,
   65.6962,       654,
   65.7164,       638,
   65.7365,       632,
   65.7567,       649,
   65.7769,       641,
    65.797,       611,
   65.8172,       610,
   65.8374,       640,
   65.8575,       612,
   65.8777,       623,
   65.8979,       644,
    65.918,       613,
   65.9382,       620,
   65.9584,       647,
   65.9786,       633,
   65.9987,       600,
   66.0189,       625,
   66.0391,       612,
   66.0592,       626,
   66.0794,       632,
   66.0996,       669,
   66.1197,       676,
   66.1399,       633,
   66.1601,       682,
   66.1802,       609,
   66.2004,       669,
   66.2206,       638,
   66.2407,       627,
   66.2609,       635,
   66.2811,       620,
   66.3012,       622,
   66.3214,       643,
   66.3416,       621,
   66.3618,       580,
   66.3819,       617,
   66.4021,       624,
   66.4223,       600,
   66.4424,       641,
   66.4626,       591,
   66.4828,       619,
   66.5029,       615,
   66.5231,       589,
   66.5433,       601,
   66.5634,       622,
   66.5836,       622,
   66.6038,       608,
   66.6239,       585,
   66.6441,       618,
   66.6643,       634,
   66.6844,       650,
   66.7046,       602,
   66.7248,       630,
    66.745,       624,
   66.7651,       590,
   66.7853,       610,
   66.8055,       623,
   66.8256,       630,
   66.8458,       624,
    66.866,       626,
   66.8861,       666,
   66.9063,       613,
   66.9265,       583,
   66.9466,       612,
   66.9668,       602,
    66.987,       583,
   67.0071,       634,
   67.0273,       599,
   67.0475,       636,
   67.0677,       603,
   67.0878,       580,
    67.108,       571,
   67.1282,       640,
   67.1483,       602,
   67.1685,       651,
   67.1887,       585,
   67.2088,       614,
    67.229,       595,
   67.2492,       635,
   67.2693,       612,
   67.2895,       635,
   67.3097,       614,
   67.3298,       583,
     67.35,       626,
   67.3702,       603,
   67.3903,       618,
   67.4105,       587,
   67.4307,       617,
   67.4509,       635,
    67.471,       596,
   67.4912,       623,
   67.5114,       583,
   67.5315,       641,
   67.5517,       636,
   67.5719,       608,
    67.592,       617,
   67.6122,       589,
   67.6324,       570,
   67.6525,       596,
   67.6727,       607,
   67.6929,       595,
    67.713,       640,
   67.7332,       660,
   67.7534,       589,
   67.7735,       615,
   67.7937,       606,
   67.8139,       605,
   67.8341,       630,
   67.8542,       608,
   67.8744,       625,
   67.8946,       613,
   67.9147,       625,
   67.9349,       623,
   67.9551,       576,
   67.9752,       635,
   67.9954,       624,
   68.0156,       577,
   68.0357,       618,
   68.0559,       598,
   68.0761,       628,
   68.0962,       630,
   68.1164,       598,
   68.1366,       646,
   68.1568,       583,
   68.1769,       650,
   68.1971,       624,
   68.2173,       666,
   68.2374,       592,
   68.2576,       633,
   68.2778,       695,
   68.2979,       639,
   68.3181,       608,
   68.3383,       605,
   68.3584,       643,
   68.3786,       627,
   68.3988,       625,
   68.4189,       603,
   68.4391,       622,
   68.4593,       643,
   68.4794,       606,
   68.4996,       579,
   68.5198,       656,
     68.54,       581,
   68.5601,       603,
   68.5803,       627,
   68.6005,       592,
   68.6206,       610,
   68.6408,       651,
    68.661,       624,
   68.6811,       598,
   68.7013,       610,
   68.7215,       624,
   68.7416,       577,
   68.7618,       623,
    68.782,       605,
   68.8021,       616,
   68.8223,       628,
   68.8425,       615,
   68.8626,       640,
   68.8828,       593,
    68.903,       630,
   68.9232,       594,
   68.9433,       614,
   68.9635,       608,
   68.9837,       576,
   69.0038,       607,
    69.024,       595,
   69.0442,       606,
   69.0643,       645,
   69.0845,       634,
   69.1047,       604,
   69.1248,       615,
    69.145,       633,
   69.1652,       615,
   69.1853,       629,
   69.2055,       616,
   69.2257,       636,
   69.2459,       624,
    69.266,       627,
   69.2862,       635,
   69.3064,       643,
   69.3265,       587,
   69.3467,       601,
   69.3669,       594,
    69.387,       576,
   69.4072,       660,
   69.4274,       643,
   69.4475,       614,
   69.4677,       582,
   69.4879,       611,
    69.508,       586,
   69.5282,       582,
   69.5484,       630,
   69.5685,       592,
   69.5887,       622,
   69.6089,       628,
   69.6291,       579,
   69.6492,       623,
   69.6694,       632,
   69.6896,       607,
   69.7097,       590,
   69.7299,       631,
   69.7501,       619,
   69.7702,       625,
   69.7904,       598,
   69.8106,       626,
   69.8307,       577,
   69.8509,       596,
   69.8711,       562,
   69.8912,       581,
   69.9114,       622,
   69.9316,       600,
   69.9517,       587,
   69.9719,       631,
   69.9921,       633,
   70.0123,       600,
   70.0324,       602,
   70.0526,       621,
   70.0728,       609,
   70.0929,       639,
   70.1131,       619,
   70.1333,       600,
   70.1534,       604,
   70.1736,       633,
   70.1938,       625,
   70.2139,       572,
   70.2341,       649,
   70.2543,       619,
   70.2744,       570,
   70.2946,       601,
   70.3148,       601,
    70.335,       629,
   70.3551,       613,
   70.3753,       575,
   70.3955,       649,
   70.4156,       649,
   70.4358,       612,
    70.456,       593,
   70.4761,       637,
   70.4963,       589,
   70.5165,       583,
   70.5366,       628,
   70.5568,       599,
    70.577,       593,
   70.5971,       586,
   70.6173,       603,
   70.6375,       573,
   70.6576,       636,
   70.6778,       605,
    70.698,       603,
   70.7182,       595,
   70.7383,       608,
   70.7585,       577,
   70.7787,       621,
   70.7988,       664,
    70.819,       604,
   70.8392,       563,
   70.8593,       647,
   70.8795,       648,
   70.8997,       623,
   70.9198,       629,
     70.94,       654,
   70.9602,       607,
   70.9803,       653,
   71.0005,       629,
   71.0207,       626,
   71.0409,       582,
    71.061,       580,
   71.0812,       597,
   71.1014,       627,
   71.1215,       614,
   71.1417,       589,
   71.1619,       638,
    71.182,       636,
   71.2022,       594,
   71.2224,       615,
   71.2425,       607,
   71.2627,       646,
   71.2829,       651,
    71.303,       662,
   71.3232,       628,
   71.3434,       616,
   71.3635,       595,
   71.3837,       644,
   71.4039,       608,
   71.4241,       622,
   71.4442,       658,
   71.4644,       616,
   71.4846,       630,
   71.5047,       597,
   71.5249,       658,
   71.5451,       634,
   71.5652,       659,
   71.5854,       632,
   71.6056,       663,
   71.6257,       613,
   71.6459,       648,
   71.6661,       588,
   71.6862,       618,
   71.7064,       667,
   71.7266,       633,
   71.7467,       642,
   71.7669,       686,
   71.7871,       600,
   71.8073,       663,
   71.8274,       640,
   71.8476,       654,
   71.8678,       618,
   71.8879,       672,
   71.9081,       652,
   71.9283,       606,
   71.9484,       671,
   71.9686,       564,
   71.9888,       643,
   72.0089,       635,
   72.0291,       639,
   72.0493,       641,
   72.0694,       630,
   72.0896,       643,
   72.1098,       653,
     72.13,       663,
   72.1501,       635,
   72.1703,       631,
   72.1905,       640,
   72.2106,       628,
   72.2308,       663,
    72.251,       678,
   72.2711,       679,
   72.2913,       684,
   72.3115,       639,
   72.3316,       628,
   72.3518,       615,
    72.372,       678,
   72.3921,       628,
   72.4123,       649,
   72.4325,       636,
   72.4526,       660,
   72.4728,       644,
    72.493,       654,
   72.5132,       638,
   72.5333,       636,
   72.5535,       646,
   72.5737,       651,
   72.5938,       627,
    72.614,       602,
   72.6342,       627,
   72.6543,       631,
   72.6745,       674,
   72.6947,       669,
   72.7148,       640,
    72.735,       659,
   72.7552,       670,
   72.7753,       635,
   72.7955,       624,
   72.8157,       652,
   72.8358,       598,
    72.856,       630,
   72.8762,       685,
   72.8964,       709,
   72.9165,       647,
   72.9367,       655,
   72.9569,       622,
    72.977,       669,
   72.9972,       639,
   73.0174,       661,
   73.0375,       629,
   73.0577,       626,
   73.0779,       661,
    73.098,       673,
   73.1182,       698,
   73.1384,       651,
   73.1585,       610,
   73.1787,       658,
   73.1989,       644,
   73.2191,       604,
   73.2392,       658,
   73.2594,       634,
   73.2796,       668,
   73.2997,       658,
   73.3199,       634,
   73.3401,       639,
   73.3602,       657,
   73.3804,       635,
   73.4006,       672,
   73.4207,       584,
   73.4409,       624,
   73.4611,       683,
   73.4812,       645,
   73.5014,       641,
   73.5216,       642,
   73.5417,       632,
   73.5619,       677,
   73.5821,       673,
   73.6023,       655,
   73.6224,       665,
   73.6426,       674,
   73.6628,       666,
   73.6829,       713,
   73.7031,       717,
   73.7233,       658,
   73.7434,       737,
   73.7636,       694,
   73.7838,       827,
   73.8039,       759,
   73.8241,       783,
   73.8443,       822,
   73.8644,       864,
   73.8846,       855,
   73.9048,       924,
   73.9249,       878,
   73.9451,       856,
   73.9653,       894,
   73.9855,       868,
   74.0056,       939,
   74.0258,       957,
    74.046,      1035,
   74.0661,      1079,
   74.0863,      1191,
   74.1065,      1453,
   74.1266,      1678,
   74.1468,      2013,
    74.167,      2859,
   74.1871,      4323,
   74.2073,      7324,
   74.2275,     10880,
   74.2476,     12680,
   74.2678,     10744,
    74.288,      7157,
   74.3082,      4425,
   74.3283,      2992,
   74.3485,      2320,
   74.3687,      2229,
   74.3888,      2548,
    74.409,      3360,
   74.4292,      4753,
   74.4493,      6369,
   74.4695,      6538,
   74.4897,      5262,
   74.5098,      3617,
     74.53,      2449,
   74.5502,      1641,
   74.5703,      1306,
   74.5905,      1110,
   74.6107,      1017,
   74.6308,       973,
    74.651,       944,
   74.6712,       863,
   74.6914,       834,
   74.7115,       814,
   74.7317,       781,
   74.7519,       792,
    74.772,       749,
   74.7922,       774,
   74.8124,       739,
   74.8325,       726,
   74.8527,       715,
   74.8729,       687,
    74.893,       676,
   74.9132,       676,
   74.9334,       682,
   74.9535,       671,
   74.9737,       691,
   74.9939,       658,
    75.014,       663,
   75.0342,       711,
   75.0544,       685,
   75.0746,       664,
   75.0947,       718,
   75.1149,       710,
   75.1351,       664,
   75.1552,       639,
   75.1754,       651,
   75.1956,       647,
   75.2157,       605,
   75.2359,       640,
   75.2561,       648,
   75.2762,       653,
   75.2964,       656,
   75.3166,       661,
   75.3367,       626,
   75.3569,       662,
   75.3771,       670,
   75.3973,       639,
   75.4174,       656,
   75.4376,       664,
   75.4578,       615,
   75.4779,       592,
   75.4981,       636,
   75.5183,       638,
   75.5384,       639,
   75.5586,       611,
   75.5788,       615,
   75.5989,       636,
   75.6191,       663,
   75.6393,       668,
   75.6594,       645,
   75.6796,       636,
   75.6998,       627,
   75.7199,       647,
   75.7401,       625,
   75.7603,       642,
   75.7805,       623,
   75.8006,       616,
   75.8208,       631,
    75.841,       614,
   75.8611,       643,
   75.8813,       597,
   75.9015,       619,
   75.9216,       655,
   75.9418,       617,
    75.962,       651,
   75.9821,       669,
   76.0023,       660,
   76.0225,       660,
   76.0426,       641,
   76.0628,       631,
    76.083,       642,
   76.1032,       642,
   76.1233,       600,
   76.1435,       641,
   76.1637,       652,
   76.1838,       643,
    76.204,       652,
   76.2242,       657,
   76.2443,       619,
   76.2645,       692,
   76.2847,       673,
   76.3048,       631,
    76.325,       586,
   76.3452,       605,
   76.3653,       612,
   76.3855,       571,
   76.4057,       641,
   76.4258,       602,
    76.446,       628,
   76.4662,       609,
   76.4864,       657,
   76.5065,       642,
   76.5267,       628,
   76.5469,       600,
    76.567,       628,
   76.5872,       632,
   76.6074,       633,
   76.6275,       622,
   76.6477,       624,
   76.6679,       599,
    76.688,       641,
   76.7082,       634,
   76.7284,       640,
   76.7485,       641,
   76.7687,       628,
   76.7889,       658,
    76.809,       587,
   76.8292,       663,
   76.8494,       599,
   76.8696,       650,
   76.8897,       621,
   76.9099,       668,
   76.9301,       659,
   76.9502,       648,
   76.9704,       618,
   76.9906,       647,
   77.0107,       617,
   77.0309,       606,
   77.0511,       670,
   77.0712,       632,
   77.0914,       602,
   77.1116,       598,
   77.1317,       620,
   77.1519,       655,
   77.1721,       619,
   77.1923,       642,
   77.2124,       592,
   77.2326,       610,
   77.2528,       603,
   77.2729,       589,
   77.2931,       596,
   77.3133,       624,
   77.3334,       669,
   77.3536,       617,
   77.3738,       636,
   77.3939,       620,
   77.4141,       610,
   77.4343,       622,
   77.4544,       572,
   77.4746,       626,
   77.4948,       601,
   77.5149,       677,
   77.5351,       656,
   77.5553,       562,
   77.5755,       624,
   77.5956,       596,
   77.6158,       621,
    77.636,       631,
   77.6561,       651,
   77.6763,       666,
   77.6965,       607,
   77.7166,       620,
   77.7368,       663,
    77.757,       629,
   77.7771,       627,
   77.7973,       646,
   77.8175,       631,
   77.8376,       606,
   77.8578,       633,
    77.878,       634,
   77.8981,       665,
   77.9183,       672,
   77.9385,       574,
   77.9587,       606,
   77.9788,       620,
    77.999,       594,
