;RAW4.00
[RawHeader]
Date=11/26/2025
EstimatedTotalTime=426.6
FurtherDQLReading=0
HardwareIndicator=65519
MeasuredTotalTime=4.29572
MeasurementFlag=1
NumberOfMeasuredRanges=1
NumberOfRanges=1
Time=05:00:21

[VarInfo]
Type=USER
Flags=0
Value=Lab Manager

[VarInfo]
Type=SAMPLEID
Flags=0
Value=Commander Sample ID

[VarInfo]
Type=COMMENT
Flags=0
Value=

[VarInfo]
Type=UTF
Flags=0
Value=

[VarInfo]
Type=CREATOR
Flags=0
Value=V5Converter

[VarInfo]
Type=CREATOR_VERSION
Flags=0
Value=4.4.16.0

[HardwareConfiguration]
AbsorptionFactor=9999
ActivateAbsorber=0
Alpha1=1.5406
Alpha2=1.54439
AlphaAverage=1.54184
AlphaRatio=0.5
Analyzer=0
Anode=Cu
AntiScatteringSlit=9999
BeamOpticsFlags=0
Beta=1.39222
BetaRelativeIntensity=0
DeactivateAbsorber=0
DetectorSlit=9999
DivergenceSlit=9999
GoniometerControl=0
GoniometerDiameter=282
GoniometerModel=256
GoniometerStage=7
Monochromator=0
NearSampleSlit=9999
PrimarySollerSlit=9999
SampleChanger=0
SecondSollerSlit=9999
SynchronousAxis=0
ThinFilmAttachment=9999
WaveUnit=A

[RangeHeader]
ActuallyUsedLambda=1.54184
AdditionalDetectorMask=257
DataRecordLength=4
DelayTime=0
DisplayPlaneNumber=0
EstimatedScanTime=427
ExtraParametersMask=0
GeneratorCurrent=10
GeneratorVoltage=30
Increment=0.0201685
Increment3=0
NumberOfCompletedData=1885
NumberOfCounts=1
NumberOfDetectors=0
NumberOfDrives=3
NumberOfEncoderDrives=0
NumberOfMeasuredData=1885
NumberOfVaryingParameters=0
RangeStartTime=0
RotationSpeed=0
ScanMode=1
ScanType=Locked Coupled
SimulatedMeasConditions=0
SlitChangerIn=0
SmootingWidth=0
Start=40.0015
Steps=1885
SynchronousRotation=0
Time=33

[VarInfo]
Type=PSD_DISCRIM
Flags=0
Value=0.11;0.5

[VarInfo]
Type=OPTICS_V5
Flags=0
Value=H4sIAAAAAAAEAO1d63KjOhJ+Fda/zqmtBIPtXKaITzm2J+OaOHbFTnKmtrZcBORYZzC4AOey//d99hl2X2x1QViIS8C3JBN+TCaodWm6+2vUUkfS/nieW9IjcD3o2GcV5bBakYBtOCa0H84qS396oBxV/mhqF44NnTnwgdt25gvHBrbf0X1dQq1t78uzB88qM99ffJHlp6enw6faoeM+yGq1qsh/9i9HxgzM9QNoe75uG6AStjJfb1WRbqEH7y1wpc/BWWXFR0joAM9w4cInL/Bj4UHLsSW+3oXrLBc9NBZ6t3Pgojcb3P8FDH+o+7OzitwBj9AAMt+CrxUfl1Lblu55QRehTORzoM8XqLDt2L4ObeBy/coBc6yHluEvdYtxoR6o1ePT02O5h8TkLue4tzhrTW2EZGjqqBswQr3oFvyXjl+9OdUtD2hyGln7c259hcAyrwHqHhq4EDFpA/KbJ8lNjfKD1ToCFipvdm00JDA1OUbR6Btwou9Ab2HpL824AjQ5tXK8m+bF4OrHhPzodEft64TGrBVWDOsoPhpP1bBWhrxWvISy1r0hIUP+4r8skMLHrm78xG8sGODQhXPdfSHkZBMMakgD9GxISBvSeHkPOIFIQeOidilHx44baRI9r5mSRmyEDSxUYBJZ3blu/xy4JnCvAfYzAL0wsdX3b8s5NVnMwIfj6+8T9KPV/l7IxHm5Jhp5z0OvBh9BE+kGCS98DAk920dCZMIVSikeHA9SJulgmhwp1bAq2ZMXfZT4B2LSAxc+QFu3ogSlwl6OWi7Ssb/0moPwnSLFGmsYPPedJdIj0qJQrgWE0MJ5JCOdEXICmjFtjmnJUA7J0tRxpRHQLUBtYA3AytxYcejGiMm4JZa46kmmLG0LrhEWBa3xcus++8A2MZDfDYZpCWdMkQKtj5nwHfcltGVFk+OFGseMJxH2qHoYWND7cnJosmJN5ku1uCnh1+H65qyTKx3Y545jAR1NEG5s6BPpdiDSG56bXcI59IlYwiKvWdVk7knrgKm+tPxb3VoCboigVyQ96CPXTshnFewlKri/oQta5l9LD8GnYEuZYx67mbHTJoqe6ZblPK0cjVCOarZnwPgJzFUVVqC1ESPOHKsWvx33pNH5Zl7erhEyxkg2xVq1lr7TdoHug6HrLIDrvzAWEyiR9/eIRfdMhLKr5fweuE21rslCEdaQRS08UPF//xMyUSUc9B0TNG8Quqbos4xMnTwz90Y+PzEHluy7tuWt5HgP/ND5vNXOHBXjLvaN2aNbYuh5A79Evm3IJvErCL6JJ23LP418rD3OPSHRTOHDEjnla/gw85sIdabECnU0BoKwUKWYS+vrz5fAfvBnTbXRwKJhj2nOjrJISkNktZevObqMVm/q5DL4SnFwGS02cm5pFninPwKqkpa1mOmKYIUieVuWOJh2nCVqyWzxf//ehzWm2Nxw9uJBQ7dIeQJnTA/KYaNePXrNFtfo7ca2MPfItOjcf/WMZelYS+paugfVBtErK9H60Ibz5bx5oBwenx4fndaUWv3kSK0pjePu32vVE4S4oAZGIvklvWZQ4W0Rs4b0UpC0Rk/7QJiajTD10yOsXjvdJsRYdyXGNhLfFkDGuto1yh6Bqz+IoV6M/ulxppzUt4kz1l2Js43EtwWcsa52jLNz4OupIMPET46w2qmqqttD2Kq7EmEbiW9jhK262jHCrvGaRirECHVXGHuvCFutth02NsJWrKMSVWsKbh08xTrZCZK+OsbSG7gQ2D5ZHRSgJJK3tspG1g4H057tH9XfH6CibEVXr/OjKbkXhfRCBYDfqOeDOWLs0nmABl3VvJn0rm5bl73OpP2tN9TkFYkJfAye/WbPftQtiMQzg4uVjCJaIvW07+CFjI1lEf6uyTEWsnm67F2lsnIJbSARW0kbWtlk6OEgY+yhA20/e3B1k8GZLoaD0auqCHeKD6S58wgk35HmwJjpNrYKCTmTxd/SeKxl8/ienF2WXefzdFk9bOTm6N5Lz546UqiqhAVciZbr3FOQY3BWIVUkVBrdJr+ZtC6H31rRcrGRhEeyyEjkXXKxo0bYURPZUVPYUbPYUQuzEywL8PxEyoQBQloib5PW7UUWe0HrokySmCrg8D78PeybkkWGzrvjVjIvuH4+FiIbUQEDqBXeyxN46LJSkY3uZbffvRqnSMV2TCAFbaXVSDlkQmfBvNq4EkHsASVZZdetcW+QpTTSOp+8YlOLgL9pYnk4ToQicvl10J4MrpMZJONJkeZyfMe6Ed+xvgA2skTfcYU8TFacvPmcsQFLZ8dr7r82tXQiP3O7dSw/voYXlO4q5vl5u6WEjcypLxqFfRNqVSHyCL4FKaFHctihVBMCjFp1f7FErbF+MBEXRsEvZLo55TW19tJ1sT+LmlpQuitTm7f2YWpolHD6sQ1TaySFsh/E0uKy2LulDZ0nkgHOmxQp25WV3aUEnW+xcHMnRJr5lluqhymm+EkWW+4491hde7Ul3ssWbV9+7YtfJA0UTQyNGXBfyVbbPA8ud74bklUw60j9YgWfilQ/I4dzraYmBmuZ2QhiKJW9qxqLdLI3h6IxR/YytzAXT1vD42MIIXVJnC4nR8cylyaJ7OZRhxZeJcCPHu2eWH2ZQFkmUJYJlGUCZZlA+fE2xcsEyvezJV4mUP6aCCsTKN8TxsoEyl8VZ2UC5XvCWZlA+ashrEygfE8IKxMoywTKMoGyTKAsEyjLBMoygbJMoCwTKMsEyjKBskygLBMoywTKMoGyTKAsEyjLBMoygbJMoHzr+KNMoCwTKD9tAiXLkUS/iumT7KzT+Cmg4tm7GScqd+cL/4UkG4arGcVOT+72h4PRhP4scnoyGTg0xcTzk2U+BzLzcGMl7XBjde+HGw8WbefceR5MR45lATfhiGNKyDjkmKsg/WbotmTQQ8ElNJZEifQE7N/XgX9k+LhXSSBnuYaE6hunwkb7FPSZfOxxRGTIPPKL8PePe2KymphYK0bAR+scevtxXAin6Q2diJrmRGpv50S+wmdgEkNlcw/RmVjQz3IliCz1U2CAaRv4kdXICV5EJGb6ELHy5h6E61FQZYr/YA2o98gntQ/sOmq5XMfxeudlE7OmVzSsTJpYMhZe0hcRy1SR/jGf/zPDjH/DR/7fA2QfErQ9hAVgol98R9I5hWWaMq5mhBds4KeJUp0oaQYcIb5mwIVtN52ZmPP5qH/5US30lx930PRnYm4HLtvZktP8/WxBxzgL44DNsuvjPeVdZqh+7nWGuODWWWeI97KTtI5vABumgB1a+LnBszXslNBZz+i3gpzt3wSirjOzGenzhQXuZgBYY/QC/KUgIkkjH65UJ0ChmfamMj+F+lCxGJtFbxiJ1dIisfpGkRjhMR6HvT9h3thLD5hkeHHgLInKwm1g17oJl16CldWVYB+fXrg3mE494KdZfesZevz3Iay2B1ceYybnbh1ywVU1LSlVPTypn6qNRkNN8LvHjcOTRv24dqQqvK8VhNAM7mETbitc+w7DEUCRgJl9i2FYh7v9roNCXwNnMmzhLkORh4SYKLFGsfsMwz42ifVFRj70nYaF9FrM/4zwzYaj4jcbRuW787sNw+F2cbvhyRss3uHlOks3wMyxzMQtgMsX+xm8pBxzcfnj6s/ujy654bCjSsOZ7olX4OYEsRyOEwezQMpa3mDWKOO8X3k4Wj2jProvYAvX6KYzLmrzl7v28CTPUlxNiU9Yi8wL0ecUu0XdWrmWfniNJk2pxn6HJHazGl4xZ9PpjyfkXwFHw4ba6R6gstmscZebgP09bgIKCIswkLYN2N/zNmAmj6JSs3YC+59rJ1Cp53Ii1c+wFVhGSkUjpbRAqXF4dHrSUJRqPWmBqqEcHldP68dqfQeB0sontAHGieA9hcKI4+SmzLSadMAw70kjnLfkkW8dVkPLMIDnOS4E3hoRE+Mi7j2jlLwRUvyl1/ekrIcPHRqtqcpiLudicNWekB9FHA7lZ+eh0Ri4qHQnkdHp3mdFwxkkShPAfO0EGXBRYgTUqKlErdE1Wb0CGJXZGHSdNqGDKCsJ1TJnP6vqMuJUZpxuDuAUxgVFpsREEgUYMFu+rxszPNBZ5WDPRwluc5pzmitr4SQ+y+l5TBQhKMMCjfMcZLfIWj48ALPjYkzSv8ZE3eHvWs9sIu2S3oNHTCEVRwtgwGnwt6KsUpyC4BLvvcgEK46DYs5u+K03mpAfRZxdFKHbnGBVi0yvQisOP5lEYfRDEPwf22IqXU7pckqXI7qcECvsd+8VLsZPznhGTjB6jZVIzZz8ZA+dc9yig6ZEJvFifFQxXo8YAd9H0PIkfi6GHAXNPKxILbzB7vVR6AbplI5NtLGOuVT/5i2e1Rn4EFu+VFtBkewhB6uqmiyUa3yqI/WAkWUTj/6JxSqYYK6D6Pv/u9RXv2COAAA=

[PSD]
ActualTwoTheta=9999
FirstUsedChannel=0
FixedPSD=0
PSDOpening=4.99171
PSDType=5

[Drive]
DriveFlags=1
DriveName=2Theta
DriveNumber=2
DriveOffset=0
OffsetIndex=0
OscillationAmplitude=0
OscillationSpeed=0
StartPosition=40.0015

[Drive]
DriveFlags=1
DriveName=Theta
DriveNumber=1
DriveOffset=0
OffsetIndex=0
OscillationAmplitude=0
OscillationSpeed=0
StartPosition=20.0007

[Drive]
DriveFlags=1
DriveName=Phi
DriveNumber=3
DriveOffset=0
OffsetIndex=0
OscillationAmplitude=0
OscillationSpeed=0
StartPosition=0

[Data]
     Angle,       PSD,
   40.0015,       670,
   40.0217,       650,
   40.0418,       651,
    40.062,       670,
   40.0822,       668,
   40.1023,       647,
   40.1225,       615,
   40.1427,       640,
   40.1628,       670,
    40.183,       617,
   40.2032,       606,
   40.2233,       702,
   40.2435,       675,
   40.2637,       629,
   40.2838,       624,
    40.304,       631,
   40.3242,       657,
   40.3444,       676,
   40.3645,       644,
   40.3847,       690,
   40.4049,       638,
    40.425,       610,
   40.4452,       652,
   40.4654,       622,
   40.4855,       624,
   40.5057,       650,
   40.5259,       640,
    40.546,       645,
   40.5662,       686,
   40.5864,       624,
   40.6065,       623,
   40.6267,       634,
   40.6469,       643,
   40.6671,       668,
   40.6872,       634,
   40.7074,       569,
   40.7276,       648,
   40.7477,       650,
   40.7679,       660,
   40.7881,       602,
   40.8082,       639,
   40.8284,       648,
   40.8486,       659,
   40.8687,       640,
   40.8889,       660,
   40.9091,       650,
   40.9292,       651,
   40.9494,       681,
   40.9696,       645,
   40.9897,       652,
   41.0099,       643,
   41.0301,       637,
   41.0503,       663,
   41.0704,       651,
   41.0906,       685,
   41.1108,       678,
   41.1309,       670,
   41.1511,       627,
   41.1713,       687,
   41.1914,       658,
   41.2116,       635,
   41.2318,       641,
   41.2519,       647,
   41.2721,       670,
   41.2923,       633,
   41.3124,       649,
   41.3326,       674,
   41.3528,       658,
   41.3729,       651,
   41.3931,       625,
   41.4133,       651,
   41.4335,       667,
   41.4536,       707,
   41.4738,       648,
    41.494,       647,
   41.5141,       662,
   41.5343,       629,
   41.5545,       630,
   41.5746,       694,
   41.5948,       680,
    41.615,       696,
   41.6351,       677,
   41.6553,       700,
   41.6755,       637,
   41.6956,       639,
   41.7158,       655,
    41.736,       683,
   41.7562,       718,
   41.7763,       691,
   41.7965,       727,
   41.8167,       754,
   41.8368,       741,
    41.857,       739,
   41.8772,       750,
   41.8973,       799,
   41.9175,       765,
   41.9377,       746,
   41.9578,       794,
    41.978,       863,
   41.9982,       769,
   42.0183,       836,
   42.0385,       807,
   42.0587,       773,
   42.0788,       762,
    42.099,       810,
   42.1192,       789,
   42.1394,       792,
   42.1595,       830,
   42.1797,       780,
   42.1999,       791,
     42.22,       761,
   42.2402,       770,
   42.2604,       801,
   42.2805,       842,
   42.3007,       792,
   42.3209,       792,
    42.341,       800,
   42.3612,       816,
   42.3814,       820,
   42.4015,       831,
   42.4217,       804,
   42.4419,       818,
    42.462,       849,
   42.4822,       859,
   42.5024,       898,
   42.5226,       852,
   42.5427,       907,
   42.5629,       887,
   42.5831,       907,
   42.6032,       874,
   42.6234,       892,
   42.6436,       881,
   42.6637,       883,
   42.6839,       907,
   42.7041,       890,
   42.7242,       908,
   42.7444,       930,
   42.7646,       944,
   42.7847,       943,
   42.8049,       966,
   42.8251,       973,
   42.8453,       981,
   42.8654,      1072,
   42.8856,      1084,
   42.9058,      1097,
   42.9259,      1208,
   42.9461,      1247,
   42.9663,      1346,
   42.9864,      1420,
   43.0066,      1423,
   43.0268,      1602,
   43.0469,      1566,
   43.0671,      1706,
   43.0873,      1828,
   43.1074,      2019,
   43.1276,      2251,
   43.1478,      2475,
   43.1679,      2819,
   43.1881,      2997,
   43.2083,      3314,
   43.2285,      3700,
   43.2486,      4602,
   43.2688,      5701,
    43.289,      8014,
   43.3091,     13309,
   43.3293,     26374,
   43.3495,     45387,
   43.3696,     48285,
   43.3898,     30361,
     43.41,     16688,
   43.4301,     14816,
   43.4503,     20575,
   43.4705,     27139,
   43.4906,     23109,
   43.5108,     12874,
    43.531,      7205,
   43.5511,      4890,
   43.5713,      3893,
   43.5915,      3325,
   43.6117,      2905,
   43.6318,      2615,
    43.652,      2341,
   43.6722,      2082,
   43.6923,      1887,
   43.7125,      1736,
   43.7327,      1638,
   43.7528,      1532,
    43.773,      1476,
   43.7932,      1352,
   43.8133,      1257,
   43.8335,      1175,
   43.8537,      1163,
   43.8738,      1155,
    43.894,      1084,
   43.9142,      1063,
   43.9344,      1019,
   43.9545,       988,
   43.9747,       981,
   43.9949,       967,
    44.015,       933,
   44.0352,       961,
   44.0554,       917,
   44.0755,       916,
   44.0957,       896,
   44.1159,       927,
    44.136,       867,
   44.1562,       822,
   44.1764,       914,
   44.1965,       890,
   44.2167,       857,
   44.2369,       811,
    44.257,       844,
   44.2772,       835,
   44.2974,       810,
   44.3176,       813,
   44.3377,       817,
   44.3579,       827,
   44.3781,       822,
   44.3982,       842,
   44.4184,       808,
   44.4386,       894,
   44.4587,       797,
   44.4789,       758,
   44.4991,       781,
   44.5192,       842,
   44.5394,       811,
   44.5596,       754,
   44.5797,       767,
   44.5999,       747,
   44.6201,       751,
   44.6402,       853,
   44.6604,       763,
   44.6806,       810,
   44.7008,       737,
   44.7209,       794,
   44.7411,       760,
   44.7613,       755,
   44.7814,       782,
   44.8016,       756,
   44.8218,       777,
   44.8419,       756,
   44.8621,       742,
   44.8823,       786,
   44.9024,       720,
   44.9226,       737,
   44.9428,       767,
   44.9629,       747,
   44.9831,       740,
   45.0033,       742,
   45.0235,       731,
   45.0436,       761,
   45.0638,       770,
    45.084,       753,
   45.1041,       776,
   45.1243,       709,
   45.1445,       728,
   45.1646,       711,
   45.1848,       814,
    45.205,       731,
   45.2251,       728,
   45.2453,       769,
   45.2655,       765,
   45.2856,       727,
   45.3058,       766,
    45.326,       746,
   45.3461,       724,
   45.3663,       747,
   45.3865,       708,
   45.4067,       721,
   45.4268,       737,
    45.447,       714,
   45.4672,       752,
   45.4873,       800,
   45.5075,       743,
   45.5277,       748,
   45.5478,       691,
    45.568,       740,
   45.5882,       731,
   45.6083,       731,
   45.6285,       721,
   45.6487,       758,
   45.6688,       739,
    45.689,       650,
   45.7092,       725,
   45.7294,       707,
   45.7495,       718,
   45.7697,       704,
   45.7899,       722,
     45.81,       742,
   45.8302,       702,
   45.8504,       699,
   45.8705,       770,
   45.8907,       706,
   45.9109,       679,
    45.931,       715,
   45.9512,       744,
   45.9714,       700,
   45.9915,       706,
   46.0117,       720,
   46.0319,       723,
    46.052,       689,
   46.0722,       735,
   46.0924,       770,
   46.1126,       759,
   46.1327,       697,
   46.1529,       704,
   46.1731,       716,
   46.1932,       712,
   46.2134,       708,
   46.2336,       689,
   46.2537,       677,
   46.2739,       703,
   46.2941,       697,
   46.3142,       677,
   46.3344,       713,
   46.3546,       695,
   46.3747,       724,
   46.3949,       692,
   46.4151,       682,
   46.4352,       693,
   46.4554,       713,
   46.4756,       712,
   46.4958,       720,
   46.5159,       702,
   46.5361,       732,
   46.5563,       731,
   46.5764,       748,
   46.5966,       704,
   46.6168,       719,
   46.6369,       707,
   46.6571,       674,
   46.6773,       718,
   46.6974,       696,
   46.7176,       726,
   46.7378,       670,
   46.7579,       714,
   46.7781,       724,
   46.7983,       685,
   46.8185,       706,
   46.8386,       729,
   46.8588,       749,
    46.879,       677,
   46.8991,       676,
   46.9193,       723,
   46.9395,       703,
   46.9596,       710,
   46.9798,       717,
        47,       720,
   47.0201,       701,
   47.0403,       678,
   47.0605,       679,
   47.0806,       690,
   47.1008,       690,
    47.121,       719,
   47.1411,       708,
   47.1613,       635,
   47.1815,       704,
   47.2017,       735,
   47.2218,       690,
    47.242,       713,
   47.2622,       704,
   47.2823,       701,
   47.3025,       621,
   47.3227,       678,
   47.3428,       695,
    47.363,       704,
   47.3832,       751,
   47.4033,       673,
   47.4235,       730,
   47.4437,       691,
   47.4638,       632,
    47.484,       682,
   47.5042,       704,
   47.5243,       698,
   47.5445,       662,
   47.5647,       699,
   47.5849,       692,
    47.605,       753,
   47.6252,       707,
   47.6454,       698,
   47.6655,       683,
   47.6857,       639,
   47.7059,       731,
    47.726,       692,
   47.7462,       686,
   47.7664,       723,
   47.7865,       696,
   47.8067,       711,
   47.8269,       621,
    47.847,       691,
   47.8672,       737,
   47.8874,       718,
   47.9076,       650,
   47.9277,       705,
   47.9479,       665,
   47.9681,       668,
   47.9882,       688,
   48.0084,       681,
   48.0286,       692,
   48.0487,       720,
   48.0689,       658,
   48.0891,       726,
   48.1092,       715,
   48.1294,       680,
   48.1496,       697,
   48.1697,       669,
   48.1899,       655,
   48.2101,       664,
   48.2302,       689,
   48.2504,       677,
   48.2706,       682,
   48.2908,       661,
   48.3109,       653,
   48.3311,       662,
   48.3513,       701,
   48.3714,       694,
   48.3916,       709,
   48.4118,       696,
   48.4319,       713,
   48.4521,       698,
   48.4723,       698,
   48.4924,       729,
   48.5126,       687,
   48.5328,       693,
   48.5529,       676,
   48.5731,       694,
   48.5933,       674,
   48.6134,       665,
   48.6336,       699,
   48.6538,       711,
    48.674,       716,
   48.6941,       695,
   48.7143,       731,
   48.7345,       743,
   48.7546,       735,
   48.7748,       706,
    48.795,       705,
   48.8151,       746,
   48.8353,       756,
   48.8555,       720,
   48.8756,       735,
   48.8958,       701,
    48.916,       674,
   48.9361,       709,
   48.9563,       705,
   48.9765,       762,
   48.9967,       702,
   49.0168,       740,
    49.037,       738,
   49.0572,       722,
   49.0773,       754,
   49.0975,       779,
   49.1177,       679,
   49.1378,       723,
    49.158,       720,
   49.1782,       747,
   49.1983,       689,
   49.2185,       743,
   49.2387,       702,
   49.2588,       741,
    49.279,       717,
   49.2992,       715,
   49.3193,       712,
   49.3395,       721,
   49.3597,       695,
   49.3799,       775,
      49.4,       787,
   49.4202,       761,
   49.4404,       776,
   49.4605,       783,
   49.4807,       779,
   49.5009,       765,
    49.521,       725,
   49.5412,       786,
   49.5614,       743,
   49.5815,       801,
   49.6017,       704,
   49.6219,       813,
    49.642,       766,
   49.6622,       812,
   49.6824,       776,
   49.7025,       789,
   49.7227,       816,
   49.7429,       792,
   49.7631,       822,
   49.7832,       780,
   49.8034,       770,
   49.8236,       854,
   49.8437,       827,
   49.8639,       844,
   49.8841,       798,
   49.9042,       792,
   49.9244,       859,
   49.9446,       891,
   49.9647,       845,
   49.9849,       899,
   50.0051,       912,
   50.0252,       976,
   50.0454,       968,
   50.0656,      1014,
   50.0858,      1089,
   50.1059,      1057,
   50.1261,      1104,
   50.1463,      1137,
   50.1664,      1137,
   50.1866,      1176,
   50.2068,      1339,
   50.2269,      1281,
   50.2471,      1459,
   50.2673,      1527,
   50.2874,      1650,
   50.3076,      1692,
   50.3278,      1807,
   50.3479,      1902,
   50.3681,      2136,
   50.3883,      2493,
   50.4084,      3186,
   50.4286,      4395,
   50.4488,      6702,
    50.469,      9873,
   50.4891,     12106,
   50.5093,     10718,
   50.5295,      7496,
   50.5496,      5489,
   50.5698,      4862,
     50.59,      5369,
   50.6101,      6643,
   50.6303,      7063,
   50.6505,      5607,
   50.6706,      3925,
   50.6908,      2752,
    50.711,      2191,
   50.7311,      1870,
   50.7513,      1597,
   50.7715,      1490,
   50.7917,      1434,
   50.8118,      1304,
    50.832,      1237,
   50.8522,      1183,
   50.8723,      1188,
   50.8925,      1085,
   50.9127,      1069,
   50.9328,       974,
    50.953,      1020,
   50.9732,       938,
   50.9933,       911,
   51.0135,       897,
   51.0337,       921,
   51.0538,       862,
    51.074,       884,
   51.0942,       846,
   51.1143,       847,
   51.1345,       783,
   51.1547,       841,
   51.1749,       792,
    51.195,       801,
   51.2152,       792,
   51.2354,       792,
   51.2555,       784,
   51.2757,       771,
   51.2959,       780,
    51.316,       723,
   51.3362,       760,
   51.3564,       758,
   51.3765,       756,
   51.3967,       739,
   51.4169,       742,
    51.437,       717,
   51.4572,       716,
   51.4774,       691,
   51.4975,       733,
   51.5177,       750,
   51.5379,       701,
   51.5581,       703,
   51.5782,       687,
   51.5984,       714,
   51.6186,       695,
   51.6387,       730,
   51.6589,       725,
   51.6791,       700,
   51.6992,       723,
   51.7194,       722,
   51.7396,       692,
   51.7597,       724,
   51.7799,       689,
   51.8001,       680,
   51.8202,       708,
   51.8404,       673,
   51.8606,       691,
   51.8808,       696,
   51.9009,       706,
   51.9211,       677,
   51.9413,       701,
   51.9614,       719,
   51.9816,       643,
   52.0018,       687,
   52.0219,       709,
   52.0421,       697,
   52.0623,       665,
   52.0824,       679,
   52.1026,       679,
   52.1228,       689,
   52.1429,       635,
   52.1631,       634,
   52.1833,       686,
   52.2034,       660,
   52.2236,       655,
   52.2438,       645,
    52.264,       664,
   52.2841,       648,
   52.3043,       642,
   52.3245,       678,
   52.3446,       661,
   52.3648,       695,
    52.385,       679,
   52.4051,       656,
   52.4253,       668,
   52.4455,       682,
   52.4656,       675,
   52.4858,       669,
    52.506,       714,
   52.5261,       621,
   52.5463,       701,
   52.5665,       649,
   52.5866,       666,
   52.6068,       655,
    52.627,       668,
   52.6472,       637,
   52.6673,       636,
   52.6875,       683,
   52.7077,       649,
   52.7278,       652,
    52.748,       667,
   52.7682,       650,
   52.7883,       720,
   52.8085,       712,
   52.8287,       688,
   52.8488,       657,
    52.869,       657,
   52.8892,       709,
   52.9093,       642,
   52.9295,       659,
   52.9497,       652,
   52.9699,       659,
     52.99,       698,
   53.0102,       656,
   53.0304,       690,
   53.0505,       687,
   53.0707,       686,
   53.0909,       661,
    53.111,       672,
   53.1312,       674,
   53.1514,       619,
   53.1715,       676,
   53.1917,       711,
   53.2119,       649,
    53.232,       659,
   53.2522,       672,
   53.2724,       659,
   53.2925,       643,
   53.3127,       647,
   53.3329,       665,
   53.3531,       651,
   53.3732,       649,
   53.3934,       685,
   53.4136,       641,
   53.4337,       670,
   53.4539,       649,
   53.4741,       617,
   53.4942,       628,
   53.5144,       625,
   53.5346,       684,
   53.5547,       643,
   53.5749,       684,
   53.5951,       687,
   53.6152,       695,
   53.6354,       664,
   53.6556,       673,
   53.6757,       621,
   53.6959,       694,
   53.7161,       662,
   53.7363,       603,
   53.7564,       657,
   53.7766,       671,
   53.7968,       595,
   53.8169,       637,
   53.8371,       669,
   53.8573,       621,
   53.8774,       672,
   53.8976,       609,
   53.9178,       643,
   53.9379,       678,
   53.9581,       651,
   53.9783,       687,
   53.9984,       671,
   54.0186,       620,
   54.0388,       632,
    54.059,       623,
   54.0791,       641,
   54.0993,       641,
   54.1195,       621,
   54.1396,       624,
   54.1598,       623,
     54.18,       633,
   54.2001,       677,
   54.2203,       700,
   54.2405,       672,
   54.2606,       642,
   54.2808,       706,
    54.301,       650,
   54.3211,       677,
   54.3413,       626,
   54.3615,       669,
   54.3816,       644,
   54.4018,       699,
    54.422,       682,
   54.4422,       623,
   54.4623,       696,
   54.4825,       651,
   54.5027,       628,
   54.5228,       653,
    54.543,       644,
   54.5632,       656,
   54.5833,       628,
   54.6035,       649,
   54.6237,       662,
   54.6438,       625,
    54.664,       653,
   54.6842,       675,
   54.7043,       609,
   54.7245,       617,
   54.7447,       643,
   54.7648,       623,
    54.785,       650,
   54.8052,       663,
   54.8254,       625,
   54.8455,       659,
   54.8657,       612,
   54.8859,       646,
    54.906,       618,
   54.9262,       652,
   54.9464,       614,
   54.9665,       641,
   54.9867,       672,
   55.0069,       686,
    55.027,       687,
   55.0472,       655,
   55.0674,       647,
   55.0875,       668,
   55.1077,       660,
   55.1279,       659,
   55.1481,       619,
   55.1682,       672,
   55.1884,       630,
   55.2086,       668,
   55.2287,       654,
   55.2489,       663,
   55.2691,       669,
   55.2892,       648,
   55.3094,       680,
   55.3296,       639,
   55.3497,       636,
   55.3699,       686,
   55.3901,       638,
   55.4102,       655,
   55.4304,       657,
   55.4506,       654,
   55.4707,       643,
   55.4909,       623,
   55.5111,       656,
   55.5313,       643,
   55.5514,       629,
   55.5716,       642,
   55.5918,       641,
   55.6119,       622,
   55.6321,       615,
   55.6523,       641,
   55.6724,       647,
   55.6926,       668,
   55.7128,       648,
   55.7329,       661,
   55.7531,       680,
   55.7733,       649,
   55.7934,       626,
   55.8136,       625,
   55.8338,       700,
    55.854,       650,
   55.8741,       658,
   55.8943,       665,
   55.9145,       628,
   55.9346,       604,
   55.9548,       672,
    55.975,       643,
   55.9951,       629,
   56.0153,       655,
   56.0355,       650,
   56.0556,       648,
   56.0758,       619,
    56.096,       657,
   56.1161,       590,
   56.1363,       590,
   56.1565,       623,
   56.1766,       615,
   56.1968,       644,
    56.217,       659,
   56.2372,       651,
   56.2573,       596,
   56.2775,       629,
   56.2977,       689,
   56.3178,       599,
    56.338,       668,
   56.3582,       616,
   56.3783,       693,
   56.3985,       651,
   56.4187,       648,
   56.4388,       626,
    56.459,       627,
   56.4792,       685,
   56.4993,       629,
   56.5195,       629,
   56.5397,       661,
   56.5598,       612,
     56.58,       650,
   56.6002,       654,
   56.6204,       669,
   56.6405,       610,
   56.6607,       660,
   56.6809,       609,
    56.701,       611,
   56.7212,       647,
   56.7414,       616,
   56.7615,       614,
   56.7817,       618,
   56.8019,       611,
    56.822,       618,
   56.8422,       628,
   56.8624,       646,
   56.8825,       629,
   56.9027,       687,
   56.9229,       648,
   56.9431,       579,
   56.9632,       676,
   56.9834,       678,
   57.0036,       571,
   57.0237,       602,
   57.0439,       618,
   57.0641,       612,
   57.0842,       640,
   57.1044,       637,
   57.1246,       591,
   57.1447,       636,
   57.1649,       629,
   57.1851,       615,
   57.2052,       651,
   57.2254,       604,
   57.2456,       648,
   57.2657,       624,
   57.2859,       630,
   57.3061,       600,
   57.3263,       657,
   57.3464,       659,
   57.3666,       616,
   57.3868,       632,
   57.4069,       649,
   57.4271,       616,
   57.4473,       665,
   57.4674,       612,
   57.4876,       592,
   57.5078,       646,
   57.5279,       624,
   57.5481,       661,
   57.5683,       626,
   57.5884,       646,
   57.6086,       637,
   57.6288,       571,
   57.6489,       616,
   57.6691,       653,
   57.6893,       630,
   57.7095,       567,
   57.7296,       646,
   57.7498,       628,
     57.77,       609,
   57.7901,       660,
   57.8103,       627,
   57.8305,       611,
   57.8506,       631,
   57.8708,       625,
    57.891,       639,
   57.9111,       651,
   57.9313,       597,
   57.9515,       680,
   57.9716,       637,
   57.9918,       663,
    58.012,       640,
   58.0322,       650,
   58.0523,       620,
   58.0725,       630,
   58.0927,       667,
   58.1128,       665,
    58.133,       664,
   58.1532,       623,
   58.1733,       649,
   58.1935,       594,
   58.2137,       610,
   58.2338,       655,
    58.254,       681,
   58.2742,       625,
   58.2943,       649,
   58.3145,       641,
   58.3347,       609,
   58.3548,       636,
    58.375,       638,
   58.3952,       644,
   58.4154,       644,
   58.4355,       643,
   58.4557,       634,
   58.4759,       639,
    58.496,       612,
   58.5162,       623,
   58.5364,       632,
   58.5565,       637,
   58.5767,       650,
   58.5969,       622,
    58.617,       625,
   58.6372,       643,
   58.6574,       630,
   58.6775,       644,
   58.6977,       687,
   58.7179,       614,
    58.738,       611,
   58.7582,       635,
   58.7784,       632,
   58.7986,       625,
   58.8187,       657,
   58.8389,       613,
   58.8591,       595,
   58.8792,       604,
   58.8994,       596,
   58.9196,       635,
   58.9397,       649,
   58.9599,       585,
   58.9801,       603,
   59.0002,       600,
   59.0204,       620,
   59.0406,       619,
   59.0607,       610,
   59.0809,       629,
   59.1011,       638,
   59.1213,       575,
   59.1414,       625,
   59.1616,       647,
   59.1818,       639,
   59.2019,       669,
   59.2221,       571,
   59.2423,       608,
   59.2624,       641,
   59.2826,       640,
   59.3028,       636,
   59.3229,       666,
   59.3431,       635,
   59.3633,       645,
   59.3834,       661,
   59.4036,       631,
   59.4238,       579,
   59.4439,       609,
   59.4641,       614,
   59.4843,       599,
   59.5045,       605,
   59.5246,       649,
   59.5448,       595,
    59.565,       672,
   59.5851,       650,
   59.6053,       596,
   59.6255,       625,
   59.6456,       590,
   59.6658,       678,
    59.686,       648,
   59.7061,       613,
   59.7263,       620,
   59.7465,       582,
   59.7666,       608,
   59.7868,       666,
    59.807,       642,
   59.8271,       658,
   59.8473,       640,
   59.8675,       629,
   59.8877,       637,
   59.9078,       604,
    59.928,       649,
   59.9482,       617,
   59.9683,       619,
   59.9885,       629,
   60.0087,       621,
   60.0288,       642,
    60.049,       594,
   60.0692,       621,
   60.0893,       656,
   60.1095,       628,
   60.1297,       611,
   60.1498,       612,
     60.17,       660,
   60.1902,       623,
   60.2104,       620,
   60.2305,       631,
   60.2507,       652,
   60.2709,       619,
    60.291,       614,
   60.3112,       636,
   60.3314,       623,
   60.3515,       646,
   60.3717,       599,
   60.3919,       708,
    60.412,       609,
   60.4322,       620,
   60.4524,       651,
   60.4725,       654,
   60.4927,       629,
   60.5129,       594,
    60.533,       607,
   60.5532,       672,
   60.5734,       552,
   60.5936,       667,
   60.6137,       594,
   60.6339,       616,
   60.6541,       616,
   60.6742,       590,
   60.6944,       638,
   60.7146,       653,
   60.7347,       660,
   60.7549,       581,
   60.7751,       670,
   60.7952,       703,
   60.8154,       629,
   60.8356,       616,
   60.8557,       618,
   60.8759,       619,
   60.8961,       629,
   60.9163,       601,
   60.9364,       629,
   60.9566,       646,
   60.9768,       658,
   60.9969,       573,
   61.0171,       621,
   61.0373,       642,
   61.0574,       649,
   61.0776,       636,
   61.0978,       638,
   61.1179,       594,
   61.1381,       634,
   61.1583,       617,
   61.1784,       629,
   61.1986,       597,
   61.2188,       644,
   61.2389,       610,
   61.2591,       633,
   61.2793,       666,
   61.2995,       621,
   61.3196,       613,
   61.3398,       621,
     61.36,       590,
   61.3801,       626,
   61.4003,       632,
   61.4205,       587,
   61.4406,       635,
   61.4608,       626,
    61.481,       640,
   61.5011,       604,
   61.5213,       600,
   61.5415,       612,
   61.5616,       573,
   61.5818,       656,
    61.602,       613,
   61.6221,       630,
   61.6423,       609,
   61.6625,       620,
   61.6827,       633,
   61.7028,       603,
    61.723,       631,
   61.7432,       604,
   61.7633,       595,
   61.7835,       590,
   61.8037,       628,
   61.8238,       632,
    61.844,       611,
   61.8642,       600,
   61.8843,       615,
   61.9045,       633,
   61.9247,       633,
   61.9448,       621,
    61.965,       597,
   61.9852,       636,
   62.0054,       617,
   62.0255,       631,
   62.0457,       641,
   62.0659,       596,
    62.086,       615,
   62.1062,       635,
   62.1264,       598,
   62.1465,       624,
   62.1667,       597,
   62.1869,       632,
    62.207,       626,
   62.2272,       598,
   62.2474,       657,
   62.2675,       601,
   62.2877,       619,
   62.3079,       618,
    62.328,       615,
   62.3482,       641,
   62.3684,       580,
   62.3886,       655,
   62.4087,       643,
   62.4289,       646,
   62.4491,       612,
   62.4692,       628,
   62.4894,       608,
   62.5096,       608,
   62.5297,       612,
   62.5499,       605,
   62.5701,       636,
   62.5902,       625,
   62.6104,       666,
   62.6306,       628,
   62.6507,       604,
   62.6709,       591,
   62.6911,       567,
   62.7112,       622,
   62.7314,       637,
   62.7516,       603,
   62.7718,       604,
   62.7919,       651,
   62.8121,       610,
   62.8323,       604,
   62.8524,       633,
   62.8726,       641,
   62.8928,       602,
   62.9129,       567,
   62.9331,       668,
   62.9533,       629,
   62.9734,       655,
   62.9936,       651,
   63.0138,       606,
   63.0339,       606,
   63.0541,       643,
   63.0743,       651,
   63.0945,       591,
   63.1146,       595,
   63.1348,       615,
    63.155,       576,
   63.1751,       592,
   63.1953,       593,
   63.2155,       607,
   63.2356,       613,
   63.2558,       592,
    63.276,       638,
   63.2961,       599,
   63.3163,       595,
   63.3365,       636,
   63.3566,       573,
   63.3768,       634,
    63.397,       593,
   63.4171,       646,
   63.4373,       666,
   63.4575,       652,
   63.4777,       624,
   63.4978,       630,
    63.518,       626,
   63.5382,       609,
   63.5583,       640,
   63.5785,       674,
   63.5987,       624,
   63.6188,       639,
    63.639,       612,
   63.6592,       599,
   63.6793,       588,
   63.6995,       568,
   63.7197,       639,
   63.7398,       640,
     63.76,       614,
   63.7802,       628,
   63.8003,       590,
   63.8205,       602,
   63.8407,       647,
   63.8609,       609,
    63.881,       594,
   63.9012,       594,
   63.9214,       612,
   63.9415,       619,
   63.9617,       645,
   63.9819,       638,
    64.002,       639,
   64.0222,       634,
   64.0424,       597,
   64.0625,       612,
   64.0827,       607,
   64.1029,       616,
    64.123,       637,
   64.1432,       635,
   64.1634,       620,
   64.1836,       619,
   64.2037,       646,
   64.2239,       589,
   64.2441,       613,
   64.2642,       598,
   64.2844,       614,
   64.3046,       601,
   64.3247,       676,
   64.3449,       653,
   64.3651,       622,
   64.3852,       608,
   64.4054,       604,
   64.4256,       601,
   64.4457,       640,
   64.4659,       593,
   64.4861,       599,
   64.5062,       615,
   64.5264,       620,
   64.5466,       653,
   64.5668,       602,
   64.5869,       589,
   64.6071,       601,
   64.6273,       636,
   64.6474,       642,
   64.6676,       627,
   64.6878,       617,
   64.7079,       639,
   64.7281,       594,
   64.7483,       653,
   64.7684,       632,
   64.7886,       677,
   64.8088,       636,
   64.8289,       591,
   64.8491,       609,
   64.8693,       634,
   64.8894,       637,
   64.9096,       618,
   64.9298,       585,
     64.95,       611,
   64.9701,       617,
   64.9903,       619,
   65.0105,       611,
   65.0306,       666,
   65.0508,       625,
    65.071,       590,
   65.0911,       566,
   65.1113,       642,
   65.1315,       627,
   65.1516,       607,
   65.1718,       622,
    65.192,       617,
   65.2121,       625,
   65.2323,       629,
   65.2525,       610,
   65.2727,       609,
   65.2928,       588,
    65.313,       621,
   65.3332,       607,
   65.3533,       610,
   65.3735,       605,
   65.3937,       611,
   65.4138,       592,
    65.434,       666,
   65.4542,       594,
   65.4743,       638,
   65.4945,       638,
   65.5147,       618,
   65.5348,       607,
    65.555,       607,
   65.5752,       648,
   65.5953,       583,
   65.6155,       607,
   65.6357,       551,
   65.6559,       590,
    65.676,       587,
   65.6962,       598,
   65.7164,       612,
   65.7365,       637,
   65.7567,       641,
   65.7769,       617,
    65.797,       631,
   65.8172,       594,
   65.8374,       601,
   65.8575,       612,
   65.8777,       583,
   65.8979,       588,
    65.918,       617,
   65.9382,       635,
   65.9584,       660,
   65.9786,       628,
   65.9987,       589,
   66.0189,       608,
   66.0391,       634,
   66.0592,       643,
   66.0794,       597,
   66.0996,       613,
   66.1197,       608,
   66.1399,       648,
   66.1601,       621,
   66.1802,       641,
   66.2004,       607,
   66.2206,       588,
   66.2407,       633,
   66.2609,       627,
   66.2811,       635,
   66.3012,       618,
   66.3214,       612,
   66.3416,       610,
   66.3618,       566,
   66.3819,       599,
   66.4021,       646,
   66.4223,       631,
   66.4424,       605,
   66.4626,       632,
   66.4828,       594,
   66.5029,       626,
   66.5231,       648,
   66.5433,       609,
   66.5634,       645,
   66.5836,       599,
   66.6038,       600,
   66.6239,       597,
   66.6441,       585,
   66.6643,       629,
   66.6844,       582,
   66.7046,       631,
   66.7248,       618,
    66.745,       604,
   66.7651,       650,
   66.7853,       619,
   66.8055,       609,
   66.8256,       636,
   66.8458,       579,
    66.866,       611,
   66.8861,       630,
   66.9063,       594,
   66.9265,       639,
   66.9466,       635,
   66.9668,       577,
    66.987,       601,
   67.0071,       636,
   67.0273,       629,
   67.0475,       626,
   67.0677,       623,
   67.0878,       574,
    67.108,       580,
   67.1282,       612,
   67.1483,       604,
   67.1685,       621,
   67.1887,       681,
   67.2088,       630,
    67.229,       646,
   67.2492,       596,
   67.2693,       623,
   67.2895,       630,
   67.3097,       579,
   67.3298,       615,
     67.35,       629,
   67.3702,       632,
   67.3903,       624,
   67.4105,       601,
   67.4307,       641,
   67.4509,       601,
    67.471,       598,
   67.4912,       593,
   67.5114,       626,
   67.5315,       552,
   67.5517,       642,
   67.5719,       566,
    67.592,       621,
   67.6122,       599,
   67.6324,       641,
   67.6525,       602,
   67.6727,       651,
   67.6929,       646,
    67.713,       570,
   67.7332,       642,
   67.7534,       562,
   67.7735,       597,
   67.7937,       576,
   67.8139,       587,
   67.8341,       627,
   67.8542,       624,
   67.8744,       627,
   67.8946,       618,
   67.9147,       614,
   67.9349,       611,
   67.9551,       584,
   67.9752,       627,
   67.9954,       592,
   68.0156,       605,
   68.0357,       601,
   68.0559,       580,
   68.0761,       629,
   68.0962,       609,
   68.1164,       580,
   68.1366,       653,
   68.1568,       591,
   68.1769,       607,
   68.1971,       646,
   68.2173,       588,
   68.2374,       620,
   68.2576,       556,
   68.2778,       605,
   68.2979,       606,
   68.3181,       622,
   68.3383,       610,
   68.3584,       560,
   68.3786,       615,
   68.3988,       627,
   68.4189,       591,
   68.4391,       651,
   68.4593,       601,
   68.4794,       615,
   68.4996,       627,
   68.5198,       559,
     68.54,       600,
   68.5601,       616,
   68.5803,       567,
   68.6005,       621,
   68.6206,       639,
   68.6408,       588,
    68.661,       611,
   68.6811,       609,
   68.7013,       603,
   68.7215,       629,
   68.7416,       627,
   68.7618,       623,
    68.782,       602,
   68.8021,       612,
   68.8223,       601,
   68.8425,       632,
   68.8626,       581,
   68.8828,       618,
    68.903,       598,
   68.9232,       661,
   68.9433,       606,
   68.9635,       608,
   68.9837,       620,
   69.0038,       631,
    69.024,       649,
   69.0442,       671,
   69.0643,       594,
   69.0845,       608,
   69.1047,       621,
   69.1248,       592,
    69.145,       615,
   69.1652,       589,
   69.1853,       648,
   69.2055,       661,
   69.2257,       601,
   69.2459,       590,
    69.266,       643,
   69.2862,       617,
   69.3064,       583,
   69.3265,       566,
   69.3467,       629,
   69.3669,       609,
    69.387,       646,
   69.4072,       647,
   69.4274,       568,
   69.4475,       594,
   69.4677,       634,
   69.4879,       637,
    69.508,       640,
   69.5282,       590,
   69.5484,       614,
   69.5685,       597,
   69.5887,       594,
   69.6089,       627,
   69.6291,       596,
   69.6492,       625,
   69.6694,       604,
   69.6896,       633,
   69.7097,       610,
   69.7299,       566,
   69.7501,       635,
   69.7702,       606,
   69.7904,       632,
   69.8106,       582,
   69.8307,       596,
   69.8509,       557,
   69.8711,       621,
   69.8912,       572,
   69.9114,       612,
   69.9316,       606,
   69.9517,       611,
   69.9719,       600,
   69.9921,       615,
   70.0123,       638,
   70.0324,       601,
   70.0526,       646,
   70.0728,       643,
   70.0929,       602,
   70.1131,       631,
   70.1333,       643,
   70.1534,       596,
   70.1736,       587,
   70.1938,       609,
   70.2139,       626,
   70.2341,       675,
   70.2543,       601,
   70.2744,       597,
   70.2946,       661,
   70.3148,       595,
    70.335,       617,
   70.3551,       646,
   70.3753,       607,
   70.3955,       666,
   70.4156,       648,
   70.4358,       643,
    70.456,       607,
   70.4761,       624,
   70.4963,       611,
   70.5165,       589,
   70.5366,       579,
   70.5568,       632,
    70.577,       575,
   70.5971,       594,
   70.6173,       624,
   70.6375,       611,
   70.6576,       604,
   70.6778,       628,
    70.698,       627,
   70.7182,       622,
   70.7383,       598,
   70.7585,       646,
   70.7787,       598,
   70.7988,       611,
    70.819,       575,
   70.8392,       620,
   70.8593,       630,
   70.8795,       570,
   70.8997,       585,
   70.9198,       596,
     70.94,       593,
   70.9602,       597,
   70.9803,       635,
   71.0005,       614,
   71.0207,       654,
   71.0409,       583,
    71.061,       633,
   71.0812,       598,
   71.1014,       604,
   71.1215,       604,
   71.1417,       627,
   71.1619,       595,
    71.182,       635,
   71.2022,       614,
   71.2224,       618,
   71.2425,       620,
   71.2627,       603,
   71.2829,       646,
    71.303,       618,
   71.3232,       629,
   71.3434,       629,
   71.3635,       595,
   71.3837,       640,
   71.4039,       626,
   71.4241,       663,
   71.4442,       632,
   71.4644,       624,
   71.4846,       663,
   71.5047,       646,
   71.5249,       609,
   71.5451,       585,
   71.5652,       630,
   71.5854,       608,
   71.6056,       695,
   71.6257,       614,
   71.6459,       616,
   71.6661,       608,
   71.6862,       608,
   71.7064,       628,
   71.7266,       624,
   71.7467,       652,
   71.7669,       635,
   71.7871,       642,
   71.8073,       647,
   71.8274,       631,
   71.8476,       587,
   71.8678,       632,
   71.8879,       634,
   71.9081,       615,
   71.9283,       642,
   71.9484,       624,
   71.9686,       624,
   71.9888,       595,
   72.0089,       597,
   72.0291,       682,
   72.0493,       638,
   72.0694,       614,
   72.0896,       626,
   72.1098,       589,
     72.13,       610,
   72.1501,       634,
   72.1703,       643,
   72.1905,       645,
   72.2106,       586,
   72.2308,       613,
    72.251,       641,
   72.2711,       616,
   72.2913,       629,
   72.3115,       624,
   72.3316,       601,
   72.3518,       669,
    72.372,       623,
   72.3921,       636,
   72.4123,       649,
   72.4325,       685,
   72.4526,       634,
   72.4728,       612,
    72.493,       620,
   72.5132,       622,
   72.5333,       630,
   72.5535,       631,
   72.5737,       662,
   72.5938,       623,
    72.614,       605,
   72.6342,       661,
   72.6543,       663,
   72.6745,       658,
   72.6947,       642,
   72.7148,       632,
    72.735,       612,
   72.7552,       648,
   72.7753,       622,
   72.7955,       612,
   72.8157,       650,
   72.8358,       648,
    72.856,       636,
   72.8762,       641,
   72.8964,       642,
   72.9165,       601,
   72.9367,       645,
   72.9569,       665,
    72.977,       665,
   72.9972,       616,
   73.0174,       652,
   73.0375,       671,
   73.0577,       646,
   73.0779,       677,
    73.098,       605,
   73.1182,       630,
   73.1384,       654,
   73.1585,       698,
   73.1787,       672,
   73.1989,       630,
   73.2191,       644,
   73.2392,       629,
   73.2594,       655,
   73.2796,       655,
   73.2997,       658,
   73.3199,       682,
   73.3401,       705,
   73.3602,       581,
   73.3804,       686,
   73.4006,       664,
   73.4207,       704,
   73.4409,       700,
   73.4611,       653,
   73.4812,       661,
   73.5014,       646,
   73.5216,       718,
   73.5417,       669,
   73.5619,       657,
   73.5821,       718,
   73.6023,       714,
   73.6224,       757,
   73.6426,       695,
   73.6628,       723,
   73.6829,       728,
   73.7031,       783,
   73.7233,       810,
   73.7434,       827,
   73.7636,       873,
   73.7838,       870,
   73.8039,       883,
   73.8241,       881,
   73.8443,       964,
   73.8644,       885,
   73.8846,       932,
   73.9048,       992,
   73.9249,       957,
   73.9451,      1027,
   73.9653,      1089,
   73.9855,      1134,
   74.0056,      1220,
   74.0258,      1327,
    74.046,      1624,
   74.0661,      2002,
   74.0863,      2703,
   74.1065,      4012,
   74.1266,      6549,
   74.1468,      9508,
    74.167,     10691,
   74.1871,      8764,
   74.2073,      5713,
   74.2275,      3654,
   74.2476,      2653,
   74.2678,      2175,
    74.288,      2153,
   74.3082,      2324,
   74.3283,      3156,
   74.3485,      4380,
   74.3687,      5564,
   74.3888,      5603,
    74.409,      4369,
   74.4292,      2896,
   74.4493,      1976,
   74.4695,      1563,
   74.4897,      1296,
   74.5098,      1154,
     74.53,      1080,
   74.5502,      1003,
   74.5703,       896,
   74.5905,       923,
   74.6107,       826,
   74.6308,       803,
    74.651,       826,
   74.6712,       823,
   74.6914,       785,
   74.7115,       778,
   74.7317,       755,
   74.7519,       711,
    74.772,       752,
   74.7922,       670,
   74.8124,       696,
   74.8325,       671,
   74.8527,       717,
   74.8729,       641,
    74.893,       650,
   74.9132,       731,
   74.9334,       671,
   74.9535,       703,
   74.9737,       717,
   74.9939,       634,
    75.014,       681,
   75.0342,       646,
   75.0544,       673,
   75.0746,       627,
   75.0947,       632,
   75.1149,       693,
   75.1351,       595,
   75.1552,       662,
   75.1754,       637,
   75.1956,       669,
   75.2157,       600,
   75.2359,       639,
   75.2561,       631,
   75.2762,       696,
   75.2964,       662,
   75.3166,       643,
   75.3367,       699,
   75.3569,       604,
   75.3771,       662,
   75.3973,       637,
   75.4174,       642,
   75.4376,       654,
   75.4578,       627,
   75.4779,       667,
   75.4981,       656,
   75.5183,       634,
   75.5384,       659,
   75.5586,       657,
   75.5788,       691,
   75.5989,       622,
   75.6191,       636,
   75.6393,       623,
   75.6594,       617,
   75.6796,       648,
   75.6998,       661,
   75.7199,       637,
   75.7401,       626,
   75.7603,       666,
   75.7805,       655,
   75.8006,       654,
   75.8208,       581,
    75.841,       630,
   75.8611,       628,
   75.8813,       656,
   75.9015,       653,
   75.9216,       656,
   75.9418,       620,
    75.962,       618,
   75.9821,       616,
   76.0023,       617,
   76.0225,       632,
   76.0426,       610,
   76.0628,       619,
    76.083,       662,
   76.1032,       655,
   76.1233,       626,
   76.1435,       650,
   76.1637,       596,
   76.1838,       601,
    76.204,       646,
   76.2242,       635,
   76.2443,       619,
   76.2645,       632,
   76.2847,       622,
   76.3048,       586,
    76.325,       652,
   76.3452,       628,
   76.3653,       595,
   76.3855,       628,
   76.4057,       657,
   76.4258,       600,
    76.446,       643,
   76.4662,       640,
   76.4864,       644,
   76.5065,       678,
   76.5267,       631,
   76.5469,       600,
    76.567,       612,
   76.5872,       600,
   76.6074,       633,
   76.6275,       652,
   76.6477,       615,
   76.6679,       615,
    76.688,       624,
   76.7082,       666,
   76.7284,       608,
   76.7485,       638,
   76.7687,       618,
   76.7889,       601,
    76.809,       624,
   76.8292,       621,
   76.8494,       615,
   76.8696,       665,
   76.8897,       628,
   76.9099,       648,
   76.9301,       659,
   76.9502,       637,
   76.9704,       643,
   76.9906,       625,
   77.0107,       622,
   77.0309,       633,
   77.0511,       620,
   77.0712,       614,
   77.0914,       596,
   77.1116,       645,
   77.1317,       589,
   77.1519,       633,
   77.1721,       622,
   77.1923,       608,
   77.2124,       606,
   77.2326,       653,
   77.2528,       581,
   77.2729,       610,
   77.2931,       642,
   77.3133,       615,
   77.3334,       610,
   77.3536,       658,
   77.3738,       582,
   77.3939,       612,
   77.4141,       573,
   77.4343,       675,
   77.4544,       609,
   77.4746,       619,
   77.4948,       620,
   77.5149,       611,
   77.5351,       596,
   77.5553,       619,
   77.5755,       622,
   77.5956,       617,
   77.6158,       620,
    77.636,       579,
   77.6561,       603,
   77.6763,       634,
   77.6965,       629,
   77.7166,       636,
   77.7368,       658,
    77.757,       643,
   77.7771,       619,
   77.7973,       664,
   77.8175,       633,
   77.8376,       589,
   77.8578,       575,
    77.878,       622,
   77.8981,       655,
   77.9183,       621,
   77.9385,       672,
   77.9587,       627,
   77.9788,       642,
    77.999,       626,
