;RAW4.00
[RawHeader]
Date=11/26/2025
EstimatedTotalTime=426.6
FurtherDQLReading=0
HardwareIndicator=65519
MeasuredTotalTime=4.32896
MeasurementFlag=1
NumberOfMeasuredRanges=1
NumberOfRanges=1
Time=03:59:18

[VarInfo]
Type=USER
Flags=0
Value=Lab Manager

[VarInfo]
Type=SAMPLEID
Flags=0
Value=Commander Sample ID

[VarInfo]
Type=COMMENT
Flags=0
Value=

[VarInfo]
Type=UTF
Flags=0
Value=

[VarInfo]
Type=CREATOR
Flags=0
Value=V5Converter

[VarInfo]
Type=CREATOR_VERSION
Flags=0
Value=4.4.16.0

[HardwareConfiguration]
AbsorptionFactor=9999
ActivateAbsorber=0
Alpha1=1.5406
Alpha2=1.54439
AlphaAverage=1.54184
AlphaRatio=0.5
Analyzer=0
Anode=Cu
AntiScatteringSlit=9999
BeamOpticsFlags=0
Beta=1.39222
BetaRelativeIntensity=0
DeactivateAbsorber=0
DetectorSlit=9999
DivergenceSlit=9999
GoniometerControl=0
GoniometerDiameter=282
GoniometerModel=256
GoniometerStage=7
Monochromator=0
NearSampleSlit=9999
PrimarySollerSlit=9999
SampleChanger=0
SecondSollerSlit=9999
SynchronousAxis=0
ThinFilmAttachment=9999
WaveUnit=A

[RangeHeader]
ActuallyUsedLambda=1.54184
AdditionalDetectorMask=257
DataRecordLength=4
DelayTime=0
DisplayPlaneNumber=0
EstimatedScanTime=427
ExtraParametersMask=0
GeneratorCurrent=10
GeneratorVoltage=30
Increment=0.0201685
Increment3=0
NumberOfCompletedData=1885
NumberOfCounts=1
NumberOfDetectors=0
NumberOfDrives=3
NumberOfEncoderDrives=0
NumberOfMeasuredData=1885
NumberOfVaryingParameters=0
RangeStartTime=0
RotationSpeed=0
ScanMode=1
ScanType=Locked Coupled
SimulatedMeasConditions=0
SlitChangerIn=0
SmootingWidth=0
Start=40.0015
Steps=1885
SynchronousRotation=0
Time=33

[VarInfo]
Type=PSD_DISCRIM
Flags=0
Value=0.11;0.5

[VarInfo]
Type=OPTICS_V5
Flags=0
Value=H4sIAAAAAAAEAO1d63KjOhJ+Fda/zqmtBIPtXKaITzm2J+OaOHbFTnKmtrZcBORYZzC4AOey//d99hl2X2x1QViIS8C3JBN+TCaodWm6+2vUUkfS/nieW9IjcD3o2GcV5bBakYBtOCa0H84qS396oBxV/mhqF44NnTnwgdt25gvHBrbf0X1dQq1t78uzB88qM99ffJHlp6enw6faoeM+yGq1qsh/9i9HxgzM9QNoe75uG6AStjJfb1WRbqEH7y1wpc/BWWXFR0joAM9w4cInL/Bj4UHLsSW+3oXrLBc9NBZ6t3Pgojcb3P8FDH+o+7OzitwBj9AAMt+CrxUfl1Lblu55QRehTORzoM8XqLDt2L4ObeBy/coBc6yHluEvdYtxoR6o1ePT02O5h8TkLue4tzhrTW2EZGjqqBswQr3oFvyXjl+9OdUtD2hyGln7c259hcAyrwHqHhq4EDFpA/KbJ8lNjfKD1ToCFipvdm00JDA1OUbR6Btwou9Ab2HpL824AjQ5tXK8m+bF4OrHhPzodEft64TGrBVWDOsoPhpP1bBWhrxWvISy1r0hIUP+4r8skMLHrm78xG8sGODQhXPdfSHkZBMMakgD9GxISBvSeHkPOIFIQeOidilHx44baRI9r5mSRmyEDSxUYBJZ3blu/xy4JnCvAfYzAL0wsdX3b8s5NVnMwIfj6+8T9KPV/l7IxHm5Jhp5z0OvBh9BE+kGCS98DAk920dCZMIVSikeHA9SJulgmhwp1bAq2ZMXfZT4B2LSAxc+QFu3ogSlwl6OWi7Ssb/0moPwnSLFGmsYPPedJdIj0qJQrgWE0MJ5JCOdEXICmjFtjmnJUA7J0tRxpRHQLUBtYA3AytxYcejGiMm4JZa46kmmLG0LrhEWBa3xcus++8A2MZDfDYZpCWdMkQKtj5nwHfcltGVFk+OFGseMJxH2qHoYWND7cnJosmJN5ku1uCnh1+H65qyTKx3Y545jAR1NEG5s6BPpdiDSG56bXcI59IlYwiKvWdVk7knrgKm+tPxb3VoCboigVyQ96CPXTshnFewlKri/oQta5l9LD8GnYEuZYx67mbHTJoqe6ZblPK0cjVCOarZnwPgJzFUVVqC1ESPOHKsWvx33pNH5Zl7erhEyxkg2xVq1lr7TdoHug6HrLIDrvzAWEyiR9/eIRfdMhLKr5fweuE21rslCEdaQRS08UPF//xMyUSUc9B0TNG8Quqbos4xMnTwz90Y+PzEHluy7tuWt5HgP/ND5vNXOHBXjLvaN2aNbYuh5A79Evm3IJvErCL6JJ23LP418rD3OPSHRTOHDEjnla/gw85sIdabECnU0BoKwUKWYS+vrz5fAfvBnTbXRwKJhj2nOjrJISkNktZevObqMVm/q5DL4SnFwGS02cm5pFninPwKqkpa1mOmKYIUieVuWOJh2nCVqyWzxf//ehzWm2Nxw9uJBQ7dIeQJnTA/KYaNePXrNFtfo7ca2MPfItOjcf/WMZelYS+paugfVBtErK9H60Ibz5bx5oBwenx4fndaUWv3kSK0pjePu32vVE4S4oAZGIvklvWZQ4W0Rs4b0UpC0Rk/7QJiajTD10yOsXjvdJsRYdyXGNhLfFkDGuto1yh6Bqz+IoV6M/ulxppzUt4kz1l2Js43EtwWcsa52jLNz4OupIMPET46w2qmqqttD2Kq7EmEbiW9jhK262jHCrvGaRirECHVXGHuvCFutth02NsJWrKMSVWsKbh08xTrZCZK+OsbSG7gQ2D5ZHRSgJJK3tspG1g4H057tH9XfH6CibEVXr/OjKbkXhfRCBYDfqOeDOWLs0nmABl3VvJn0rm5bl73OpP2tN9TkFYkJfAye/WbPftQtiMQzg4uVjCJaIvW07+CFjI1lEf6uyTEWsnm67F2lsnIJbSARW0kbWtlk6OEgY+yhA20/e3B1k8GZLoaD0auqCHeKD6S58wgk35HmwJjpNrYKCTmTxd/SeKxl8/ienF2WXefzdFk9bOTm6N5Lz546UqiqhAVciZbr3FOQY3BWIVUkVBrdJr+ZtC6H31rRcrGRhEeyyEjkXXKxo0bYURPZUVPYUbPYUQuzEywL8PxEyoQBQloib5PW7UUWe0HrokySmCrg8D78PeybkkWGzrvjVjIvuH4+FiIbUQEDqBXeyxN46LJSkY3uZbffvRqnSMV2TCAFbaXVSDlkQmfBvNq4EkHsASVZZdetcW+QpTTSOp+8YlOLgL9pYnk4ToQicvl10J4MrpMZJONJkeZyfMe6Ed+xvgA2skTfcYU8TFacvPmcsQFLZ8dr7r82tXQiP3O7dSw/voYXlO4q5vl5u6WEjcypLxqFfRNqVSHyCL4FKaFHctihVBMCjFp1f7FErbF+MBEXRsEvZLo55TW19tJ1sT+LmlpQuitTm7f2YWpolHD6sQ1TaySFsh/E0uKy2LulDZ0nkgHOmxQp25WV3aUEnW+xcHMnRJr5lluqhymm+EkWW+4491hde7Ul3ssWbV9+7YtfJA0UTQyNGXBfyVbbPA8ud74bklUw60j9YgWfilQ/I4dzraYmBmuZ2QhiKJW9qxqLdLI3h6IxR/YytzAXT1vD42MIIXVJnC4nR8cylyaJ7OZRhxZeJcCPHu2eWH2ZQFkmUJYJlGUCZZlA+fE2xcsEyvezJV4mUP6aCCsTKN8TxsoEyl8VZ2UC5XvCWZlA+ashrEygfE8IKxMoywTKMoGyTKAsEyjLBMoygbJMoCwTKMsEyjKBskygLBMoywTKMoGyTKAsEyjLBMoygbJMoHzr+KNMoCwTKD9tAiXLkUS/iumT7KzT+Cmg4tm7GScqd+cL/4UkG4arGcVOT+72h4PRhP4scnoyGTg0xcTzk2U+BzLzcGMl7XBjde+HGw8WbefceR5MR45lATfhiGNKyDjkmKsg/WbotmTQQ8ElNJZEifQE7N/XgX9k+LhXSSBnuYaE6hunwkb7FPSZfOxxRGTIPPKL8PePe2KymphYK0bAR+scevtxXAin6Q2diJrmRGpv50S+wmdgEkNlcw/RmVjQz3IliCz1U2CAaRv4kdXICV5EJGb6ELHy5h6E61FQZYr/YA2o98gntQ/sOmq5XMfxeudlE7OmVzSsTJpYMhZe0hcRy1SR/jGf/zPDjH/DR/7fA2QfErQ9hAVgol98R9I5hWWaMq5mhBds4KeJUp0oaQYcIb5mwIVtN52ZmPP5qH/5US30lx930PRnYm4HLtvZktP8/WxBxzgL44DNsuvjPeVdZqh+7nWGuODWWWeI97KTtI5vABumgB1a+LnBszXslNBZz+i3gpzt3wSirjOzGenzhQXuZgBYY/QC/KUgIkkjH65UJ0ChmfamMj+F+lCxGJtFbxiJ1dIisfpGkRjhMR6HvT9h3thLD5hkeHHgLInKwm1g17oJl16CldWVYB+fXrg3mE494KdZfesZevz3Iay2B1ceYybnbh1ywVU1LSlVPTypn6qNRkNN8LvHjcOTRv24dqQqvK8VhNAM7mETbitc+w7DEUCRgJl9i2FYh7v9roNCXwNnMmzhLkORh4SYKLFGsfsMwz42ifVFRj70nYaF9FrM/4zwzYaj4jcbRuW787sNw+F2cbvhyRss3uHlOks3wMyxzMQtgMsX+xm8pBxzcfnj6s/ujy654bCjSsOZ7olX4OYEsRyOEwezQMpa3mDWKOO8X3k4Wj2jProvYAvX6KYzLmrzl7v28CTPUlxNiU9Yi8wL0ecUu0XdWrmWfniNJk2pxn6HJHazGl4xZ9PpjyfkXwFHw4ba6R6gstmscZebgP09bgIKCIswkLYN2N/zNmAmj6JSs3YC+59rJ1Cp53Ii1c+wFVhGSkUjpbRAqXF4dHrSUJRqPWmBqqEcHldP68dqfQeB0sontAHGieA9hcKI4+SmzLSadMAw70kjnLfkkW8dVkPLMIDnOS4E3hoRE+Mi7j2jlLwRUvyl1/ekrIcPHRqtqcpiLudicNWekB9FHA7lZ+eh0Ri4qHQnkdHp3mdFwxkkShPAfO0EGXBRYgTUqKlErdE1Wb0CGJXZGHSdNqGDKCsJ1TJnP6vqMuJUZpxuDuAUxgVFpsREEgUYMFu+rxszPNBZ5WDPRwluc5pzmitr4SQ+y+l5TBQhKMMCjfMcZLfIWj48ALPjYkzSv8ZE3eHvWs9sIu2S3oNHTCEVRwtgwGnwt6KsUpyC4BLvvcgEK46DYs5u+K03mpAfRZxdFKHbnGBVi0yvQisOP5lEYfRDEPwf22IqXU7pckqXI7qcECvsd+8VLsZPznhGTjB6jZVIzZz8ZA+dc9yig6ZEJvFifFQxXo8YAd9H0PIkfi6GHAXNPKxILbzB7vVR6AbplI5NtLGOuVT/5i2e1Rn4EFu+VFtBkewhB6uqmiyUa3yqI/WAkWUTj/6JxSqYYK6D6Pv/u9RXv2COAAA=

[PSD]
ActualTwoTheta=9999
FirstUsedChannel=0
FixedPSD=0
PSDOpening=4.99171
PSDType=5

[Drive]
DriveFlags=1
DriveName=2Theta
DriveNumber=2
DriveOffset=0
OffsetIndex=0
OscillationAmplitude=0
OscillationSpeed=0
StartPosition=40.0015

[Drive]
DriveFlags=1
DriveName=Theta
DriveNumber=1
DriveOffset=0
OffsetIndex=0
OscillationAmplitude=0
OscillationSpeed=0
StartPosition=20.0007

[Drive]
DriveFlags=1
DriveName=Phi
DriveNumber=3
DriveOffset=0
OffsetIndex=0
OscillationAmplitude=0
OscillationSpeed=0
StartPosition=0

[Data]
     Angle,       PSD,
   40.0015,       620,
   40.0217,       624,
   40.0418,       610,
    40.062,       647,
   40.0822,       630,
   40.1023,       603,
   40.1225,       654,
   40.1427,       666,
   40.1628,       585,
    40.183,       636,
   40.2032,       608,
   40.2233,       636,
   40.2435,       593,
   40.2637,       661,
   40.2838,       618,
    40.304,       622,
   40.3242,       621,
   40.3444,       625,
   40.3645,       607,
   40.3847,       626,
   40.4049,       607,
    40.425,       621,
   40.4452,       594,
   40.4654,       610,
   40.4855,       688,
   40.5057,       639,
   40.5259,       676,
    40.546,       628,
   40.5662,       599,
   40.5864,       649,
   40.6065,       617,
   40.6267,       637,
   40.6469,       596,
   40.6671,       620,
   40.6872,       629,
   40.7074,       652,
   40.7276,       653,
   40.7477,       640,
   40.7679,       638,
   40.7881,       637,
   40.8082,       628,
   40.8284,       622,
   40.8486,       622,
   40.8687,       637,
   40.8889,       641,
   40.9091,       649,
   40.9292,       648,
   40.9494,       653,
   40.9696,       684,
   40.9897,       628,
   41.0099,       634,
   41.0301,       670,
   41.0503,       639,
   41.0704,       664,
   41.0906,       638,
   41.1108,       623,
   41.1309,       653,
   41.1511,       635,
   41.1713,       637,
   41.1914,       595,
   41.2116,       670,
   41.2318,       662,
   41.2519,       670,
   41.2721,       651,
   41.2923,       675,
   41.3124,       636,
   41.3326,       704,
   41.3528,       631,
   41.3729,       676,
   41.3931,       683,
   41.4133,       625,
   41.4335,       665,
   41.4536,       637,
   41.4738,       666,
    41.494,       659,
   41.5141,       672,
   41.5343,       704,
   41.5545,       650,
   41.5746,       683,
   41.5948,       678,
    41.615,       648,
   41.6351,       645,
   41.6553,       660,
   41.6755,       667,
   41.6956,       634,
   41.7158,       617,
    41.736,       705,
   41.7562,       623,
   41.7763,       698,
   41.7965,       687,
   41.8167,       660,
   41.8368,       726,
    41.857,       689,
   41.8772,       647,
   41.8973,       682,
   41.9175,       671,
   41.9377,       753,
   41.9578,       727,
    41.978,       747,
   41.9982,       798,
   42.0183,       768,
   42.0385,       774,
   42.0587,       724,
   42.0788,       759,
    42.099,       744,
   42.1192,       776,
   42.1394,       802,
   42.1595,       809,
   42.1797,       782,
   42.1999,       787,
     42.22,       785,
   42.2402,       772,
   42.2604,       794,
   42.2805,       792,
   42.3007,       826,
   42.3209,       755,
    42.341,       772,
   42.3612,       818,
   42.3814,       808,
   42.4015,       828,
   42.4217,       798,
   42.4419,       850,
    42.462,       782,
   42.4822,       837,
   42.5024,       847,
   42.5226,       856,
   42.5427,       834,
   42.5629,       869,
   42.5831,       799,
   42.6032,       872,
   42.6234,       831,
   42.6436,       849,
   42.6637,       898,
   42.6839,       911,
   42.7041,       914,
   42.7242,       903,
   42.7444,       927,
   42.7646,       950,
   42.7847,       952,
   42.8049,       964,
   42.8251,       908,
   42.8453,       956,
   42.8654,       980,
   42.8856,      1014,
   42.9058,      1055,
   42.9259,      1071,
   42.9461,      1159,
   42.9663,      1132,
   42.9864,      1164,
   43.0066,      1242,
   43.0268,      1304,
   43.0469,      1377,
   43.0671,      1373,
   43.0873,      1487,
   43.1074,      1629,
   43.1276,      1610,
   43.1478,      1701,
   43.1679,      1872,
   43.1881,      1956,
   43.2083,      2230,
   43.2285,      2340,
   43.2486,      2634,
   43.2688,      2915,
    43.289,      3263,
   43.3091,      3703,
   43.3293,      4090,
   43.3495,      4876,
   43.3696,      5600,
   43.3898,      6638,
     43.41,      7935,
   43.4301,      9872,
   43.4503,     13269,
   43.4705,     20027,
   43.4906,     27131,
   43.5108,     27626,
    43.531,     21191,
   43.5511,     15802,
   43.5713,     14598,
   43.5915,     16438,
   43.6117,     18115,
   43.6318,     15519,
    43.652,     10994,
   43.6722,      8131,
   43.6923,      6462,
   43.7125,      5462,
   43.7327,      4750,
   43.7528,      4018,
    43.773,      3646,
   43.7932,      3220,
   43.8133,      2811,
   43.8335,      2557,
   43.8537,      2317,
   43.8738,      2191,
    43.894,      2061,
   43.9142,      1837,
   43.9344,      1810,
   43.9545,      1634,
   43.9747,      1527,
   43.9949,      1423,
    44.015,      1383,
   44.0352,      1333,
   44.0554,      1265,
   44.0755,      1198,
   44.0957,      1194,
   44.1159,      1169,
    44.136,      1184,
   44.1562,      1116,
   44.1764,      1075,
   44.1965,      1066,
   44.2167,      1027,
   44.2369,      1074,
    44.257,      1048,
   44.2772,       996,
   44.2974,       970,
   44.3176,       910,
   44.3377,      1025,
   44.3579,       929,
   44.3781,       887,
   44.3982,       914,
   44.4184,       873,
   44.4386,       882,
   44.4587,       878,
   44.4789,       869,
   44.4991,       865,
   44.5192,       907,
   44.5394,       865,
   44.5596,       867,
   44.5797,       822,
   44.5999,       821,
   44.6201,       838,
   44.6402,       864,
   44.6604,       844,
   44.6806,       757,
   44.7008,       801,
   44.7209,       842,
   44.7411,       821,
   44.7613,       827,
   44.7814,       833,
   44.8016,       802,
   44.8218,       820,
   44.8419,       792,
   44.8621,       830,
   44.8823,       789,
   44.9024,       757,
   44.9226,       806,
   44.9428,       787,
   44.9629,       744,
   44.9831,       773,
   45.0033,       741,
   45.0235,       710,
   45.0436,       780,
   45.0638,       757,
    45.084,       768,
   45.1041,       765,
   45.1243,       742,
   45.1445,       761,
   45.1646,       740,
   45.1848,       731,
    45.205,       760,
   45.2251,       753,
   45.2453,       777,
   45.2655,       731,
   45.2856,       715,
   45.3058,       733,
    45.326,       796,
   45.3461,       707,
   45.3663,       742,
   45.3865,       783,
   45.4067,       707,
   45.4268,       766,
    45.447,       734,
   45.4672,       778,
   45.4873,       752,
   45.5075,       728,
   45.5277,       740,
   45.5478,       736,
    45.568,       752,
   45.5882,       762,
   45.6083,       715,
   45.6285,       746,
   45.6487,       763,
   45.6688,       732,
    45.689,       697,
   45.7092,       795,
   45.7294,       700,
   45.7495,       721,
   45.7697,       711,
   45.7899,       752,
     45.81,       711,
   45.8302,       717,
   45.8504,       689,
   45.8705,       692,
   45.8907,       750,
   45.9109,       752,
    45.931,       736,
   45.9512,       727,
   45.9714,       723,
   45.9915,       727,
   46.0117,       716,
   46.0319,       692,
    46.052,       715,
   46.0722,       740,
   46.0924,       684,
   46.1126,       690,
   46.1327,       727,
   46.1529,       724,
   46.1731,       718,
   46.1932,       694,
   46.2134,       663,
   46.2336,       691,
   46.2537,       716,
   46.2739,       676,
   46.2941,       697,
   46.3142,       753,
   46.3344,       746,
   46.3546,       661,
   46.3747,       707,
   46.3949,       688,
   46.4151,       715,
   46.4352,       687,
   46.4554,       700,
   46.4756,       700,
   46.4958,       721,
   46.5159,       702,
   46.5361,       662,
   46.5563,       708,
   46.5764,       703,
   46.5966,       664,
   46.6168,       687,
   46.6369,       754,
   46.6571,       714,
   46.6773,       679,
   46.6974,       681,
   46.7176,       630,
   46.7378,       669,
   46.7579,       767,
   46.7781,       697,
   46.7983,       721,
   46.8185,       745,
   46.8386,       737,
   46.8588,       708,
    46.879,       702,
   46.8991,       660,
   46.9193,       710,
   46.9395,       667,
   46.9596,       673,
   46.9798,       678,
        47,       648,
   47.0201,       670,
   47.0403,       664,
   47.0605,       658,
   47.0806,       686,
   47.1008,       679,
    47.121,       719,
   47.1411,       735,
   47.1613,       683,
   47.1815,       667,
   47.2017,       648,
   47.2218,       695,
    47.242,       701,
   47.2622,       706,
   47.2823,       703,
   47.3025,       695,
   47.3227,       676,
   47.3428,       689,
    47.363,       696,
   47.3832,       620,
   47.4033,       692,
   47.4235,       692,
   47.4437,       642,
   47.4638,       708,
    47.484,       735,
   47.5042,       657,
   47.5243,       655,
   47.5445,       671,
   47.5647,       667,
   47.5849,       671,
    47.605,       698,
   47.6252,       721,
   47.6454,       699,
   47.6655,       698,
   47.6857,       695,
   47.7059,       677,
    47.726,       713,
   47.7462,       668,
   47.7664,       675,
   47.7865,       676,
   47.8067,       682,
   47.8269,       662,
    47.847,       679,
   47.8672,       727,
   47.8874,       730,
   47.9076,       640,
   47.9277,       688,
   47.9479,       720,
   47.9681,       674,
   47.9882,       690,
   48.0084,       684,
   48.0286,       673,
   48.0487,       696,
   48.0689,       693,
   48.0891,       662,
   48.1092,       676,
   48.1294,       727,
   48.1496,       690,
   48.1697,       701,
   48.1899,       666,
   48.2101,       730,
   48.2302,       730,
   48.2504,       670,
   48.2706,       678,
   48.2908,       706,
   48.3109,       664,
   48.3311,       701,
   48.3513,       697,
   48.3714,       688,
   48.3916,       649,
   48.4118,       652,
   48.4319,       678,
   48.4521,       735,
   48.4723,       725,
   48.4924,       669,
   48.5126,       686,
   48.5328,       673,
   48.5529,       679,
   48.5731,       687,
   48.5933,       719,
   48.6134,       685,
   48.6336,       617,
   48.6538,       685,
    48.674,       683,
   48.6941,       664,
   48.7143,       694,
   48.7345,       712,
   48.7546,       692,
   48.7748,       692,
    48.795,       728,
   48.8151,       706,
   48.8353,       722,
   48.8555,       719,
   48.8756,       724,
   48.8958,       757,
    48.916,       710,
   48.9361,       729,
   48.9563,       732,
   48.9765,       737,
   48.9967,       732,
   49.0168,       756,
    49.037,       688,
   49.0572,       771,
   49.0773,       731,
   49.0975,       707,
   49.1177,       732,
   49.1378,       751,
    49.158,       719,
   49.1782,       763,
   49.1983,       706,
   49.2185,       724,
   49.2387,       703,
   49.2588,       719,
    49.279,       786,
   49.2992,       724,
   49.3193,       727,
   49.3395,       729,
   49.3597,       746,
   49.3799,       801,
      49.4,       774,
   49.4202,       747,
   49.4404,       777,
   49.4605,       748,
   49.4807,       789,
   49.5009,       792,
    49.521,       774,
   49.5412,       777,
   49.5614,       746,
   49.5815,       754,
   49.6017,       777,
   49.6219,       760,
    49.642,       756,
   49.6622,       772,
   49.6824,       841,
   49.7025,       817,
   49.7227,       782,
   49.7429,       810,
   49.7631,       832,
   49.7832,       817,
   49.8034,       806,
   49.8236,       816,
   49.8437,       919,
   49.8639,       874,
   49.8841,       889,
   49.9042,       877,
   49.9244,       839,
   49.9446,       903,
   49.9647,       933,
   49.9849,       991,
   50.0051,      1007,
   50.0252,       972,
   50.0454,      1026,
   50.0656,       990,
   50.0858,      1052,
   50.1059,      1104,
   50.1261,      1144,
   50.1463,      1158,
   50.1664,      1158,
   50.1866,      1201,
   50.2068,      1239,
   50.2269,      1307,
   50.2471,      1439,
   50.2673,      1446,
   50.2874,      1524,
   50.3076,      1582,
   50.3278,      1645,
   50.3479,      1869,
   50.3681,      1896,
   50.3883,      1989,
   50.4084,      2047,
   50.4286,      2206,
   50.4488,      2372,
    50.469,      2442,
   50.4891,      2588,
   50.5093,      2836,
   50.5295,      2971,
   50.5496,      3517,
   50.5698,      4321,
     50.59,      5414,
   50.6101,      6677,
   50.6303,      7196,
   50.6505,      6196,
   50.6706,      4958,
   50.6908,      4154,
    50.711,      4221,
   50.7311,      4490,
   50.7513,      4786,
   50.7715,      4492,
   50.7917,      3816,
   50.8118,      3135,
    50.832,      2753,
   50.8522,      2351,
   50.8723,      2179,
   50.8925,      2064,
   50.9127,      1893,
   50.9328,      1875,
    50.953,      1754,
   50.9732,      1689,
   50.9933,      1532,
   51.0135,      1422,
   51.0337,      1404,
   51.0538,      1407,
    51.074,      1318,
   51.0942,      1261,
   51.1143,      1180,
   51.1345,      1108,
   51.1547,      1070,
   51.1749,      1046,
    51.195,      1076,
   51.2152,      1004,
   51.2354,       973,
   51.2555,       961,
   51.2757,       941,
   51.2959,       927,
    51.316,       915,
   51.3362,       916,
   51.3564,       857,
   51.3765,       877,
   51.3967,       876,
   51.4169,       835,
    51.437,       785,
   51.4572,       799,
   51.4774,       779,
   51.4975,       766,
   51.5177,       772,
   51.5379,       763,
   51.5581,       773,
   51.5782,       756,
   51.5984,       771,
   51.6186,       767,
   51.6387,       722,
   51.6589,       741,
   51.6791,       781,
   51.6992,       740,
   51.7194,       752,
   51.7396,       746,
   51.7597,       750,
   51.7799,       762,
   51.8001,       766,
   51.8202,       690,
   51.8404,       733,
   51.8606,       707,
   51.8808,       708,
   51.9009,       714,
   51.9211,       688,
   51.9413,       669,
   51.9614,       678,
   51.9816,       698,
   52.0018,       742,
   52.0219,       685,
   52.0421,       657,
   52.0623,       612,
   52.0824,       687,
   52.1026,       687,
   52.1228,       674,
   52.1429,       704,
   52.1631,       693,
   52.1833,       679,
   52.2034,       717,
   52.2236,       653,
   52.2438,       674,
    52.264,       690,
   52.2841,       680,
   52.3043,       675,
   52.3245,       691,
   52.3446,       627,
   52.3648,       680,
    52.385,       689,
   52.4051,       671,
   52.4253,       634,
   52.4455,       629,
   52.4656,       602,
   52.4858,       699,
    52.506,       680,
   52.5261,       713,
   52.5463,       661,
   52.5665,       631,
   52.5866,       639,
   52.6068,       686,
    52.627,       620,
   52.6472,       654,
   52.6673,       680,
   52.6875,       608,
   52.7077,       664,
   52.7278,       639,
    52.748,       640,
   52.7682,       636,
   52.7883,       570,
   52.8085,       652,
   52.8287,       646,
   52.8488,       634,
    52.869,       659,
   52.8892,       606,
   52.9093,       667,
   52.9295,       664,
   52.9497,       659,
   52.9699,       653,
     52.99,       645,
   53.0102,       644,
   53.0304,       614,
   53.0505,       623,
   53.0707,       684,
   53.0909,       676,
    53.111,       693,
   53.1312,       628,
   53.1514,       633,
   53.1715,       649,
   53.1917,       607,
   53.2119,       628,
    53.232,       681,
   53.2522,       603,
   53.2724,       617,
   53.2925,       661,
   53.3127,       644,
   53.3329,       632,
   53.3531,       636,
   53.3732,       624,
   53.3934,       612,
   53.4136,       589,
   53.4337,       653,
   53.4539,       640,
   53.4741,       643,
   53.4942,       636,
   53.5144,       599,
   53.5346,       641,
   53.5547,       655,
   53.5749,       642,
   53.5951,       636,
   53.6152,       659,
   53.6354,       654,
   53.6556,       604,
   53.6757,       628,
   53.6959,       620,
   53.7161,       581,
   53.7363,       669,
   53.7564,       630,
   53.7766,       626,
   53.7968,       649,
   53.8169,       621,
   53.8371,       639,
   53.8573,       631,
   53.8774,       633,
   53.8976,       656,
   53.9178,       618,
   53.9379,       627,
   53.9581,       609,
   53.9783,       655,
   53.9984,       620,
   54.0186,       595,
   54.0388,       638,
    54.059,       620,
   54.0791,       682,
   54.0993,       636,
   54.1195,       596,
   54.1396,       625,
   54.1598,       604,
     54.18,       620,
   54.2001,       650,
   54.2203,       639,
   54.2405,       650,
   54.2606,       627,
   54.2808,       678,
    54.301,       614,
   54.3211,       643,
   54.3413,       602,
   54.3615,       639,
   54.3816,       616,
   54.4018,       656,
    54.422,       607,
   54.4422,       612,
   54.4623,       604,
   54.4825,       624,
   54.5027,       605,
   54.5228,       590,
    54.543,       606,
   54.5632,       615,
   54.5833,       659,
   54.6035,       616,
   54.6237,       651,
   54.6438,       594,
    54.664,       579,
   54.6842,       652,
   54.7043,       629,
   54.7245,       577,
   54.7447,       657,
   54.7648,       627,
    54.785,       640,
   54.8052,       623,
   54.8254,       662,
   54.8455,       614,
   54.8657,       620,
   54.8859,       638,
    54.906,       654,
   54.9262,       629,
   54.9464,       669,
   54.9665,       608,
   54.9867,       643,
   55.0069,       599,
    55.027,       647,
   55.0472,       609,
   55.0674,       656,
   55.0875,       582,
   55.1077,       636,
   55.1279,       634,
   55.1481,       647,
   55.1682,       640,
   55.1884,       605,
   55.2086,       599,
   55.2287,       620,
   55.2489,       615,
   55.2691,       672,
   55.2892,       616,
   55.3094,       674,
   55.3296,       634,
   55.3497,       606,
   55.3699,       622,
   55.3901,       615,
   55.4102,       584,
   55.4304,       599,
   55.4506,       613,
   55.4707,       654,
   55.4909,       621,
   55.5111,       620,
   55.5313,       649,
   55.5514,       656,
   55.5716,       631,
   55.5918,       650,
   55.6119,       663,
   55.6321,       607,
   55.6523,       621,
   55.6724,       654,
   55.6926,       617,
   55.7128,       601,
   55.7329,       613,
   55.7531,       643,
   55.7733,       643,
   55.7934,       636,
   55.8136,       641,
   55.8338,       591,
    55.854,       638,
   55.8741,       633,
   55.8943,       587,
   55.9145,       583,
   55.9346,       644,
   55.9548,       583,
    55.975,       605,
   55.9951,       597,
   56.0153,       597,
   56.0355,       613,
   56.0556,       619,
   56.0758,       620,
    56.096,       652,
   56.1161,       623,
   56.1363,       581,
   56.1565,       574,
   56.1766,       701,
   56.1968,       637,
    56.217,       607,
   56.2372,       655,
   56.2573,       616,
   56.2775,       626,
   56.2977,       589,
   56.3178,       601,
    56.338,       610,
   56.3582,       599,
   56.3783,       593,
   56.3985,       598,
   56.4187,       599,
   56.4388,       633,
    56.459,       622,
   56.4792,       629,
   56.4993,       612,
   56.5195,       645,
   56.5397,       616,
   56.5598,       637,
     56.58,       608,
   56.6002,       598,
   56.6204,       603,
   56.6405,       656,
   56.6607,       656,
   56.6809,       602,
    56.701,       620,
   56.7212,       626,
   56.7414,       618,
   56.7615,       627,
   56.7817,       600,
   56.8019,       654,
    56.822,       650,
   56.8422,       608,
   56.8624,       640,
   56.8825,       593,
   56.9027,       621,
   56.9229,       631,
   56.9431,       644,
   56.9632,       624,
   56.9834,       587,
   57.0036,       635,
   57.0237,       630,
   57.0439,       665,
   57.0641,       622,
   57.0842,       569,
   57.1044,       624,
   57.1246,       613,
   57.1447,       594,
   57.1649,       582,
   57.1851,       597,
   57.2052,       585,
   57.2254,       625,
   57.2456,       600,
   57.2657,       617,
   57.2859,       587,
   57.3061,       647,
   57.3263,       637,
   57.3464,       588,
   57.3666,       590,
   57.3868,       635,
   57.4069,       572,
   57.4271,       636,
   57.4473,       595,
   57.4674,       603,
   57.4876,       636,
   57.5078,       608,
   57.5279,       604,
   57.5481,       615,
   57.5683,       567,
   57.5884,       588,
   57.6086,       617,
   57.6288,       593,
   57.6489,       572,
   57.6691,       597,
   57.6893,       603,
   57.7095,       606,
   57.7296,       646,
   57.7498,       586,
     57.77,       588,
   57.7901,       614,
   57.8103,       585,
   57.8305,       624,
   57.8506,       673,
   57.8708,       655,
    57.891,       641,
   57.9111,       605,
   57.9313,       617,
   57.9515,       620,
   57.9716,       570,
   57.9918,       617,
    58.012,       664,
   58.0322,       611,
   58.0523,       639,
   58.0725,       631,
   58.0927,       621,
   58.1128,       632,
    58.133,       629,
   58.1532,       638,
   58.1733,       590,
   58.1935,       646,
   58.2137,       605,
   58.2338,       593,
    58.254,       620,
   58.2742,       619,
   58.2943,       624,
   58.3145,       616,
   58.3347,       629,
   58.3548,       611,
    58.375,       560,
   58.3952,       597,
   58.4154,       644,
   58.4355,       574,
   58.4557,       590,
   58.4759,       626,
    58.496,       624,
   58.5162,       624,
   58.5364,       595,
   58.5565,       592,
   58.5767,       600,
   58.5969,       602,
    58.617,       574,
   58.6372,       613,
   58.6574,       614,
   58.6775,       613,
   58.6977,       640,
   58.7179,       577,
    58.738,       618,
   58.7582,       573,
   58.7784,       612,
   58.7986,       619,
   58.8187,       599,
   58.8389,       577,
   58.8591,       625,
   58.8792,       561,
   58.8994,       604,
   58.9196,       628,
   58.9397,       584,
   58.9599,       594,
   58.9801,       621,
   59.0002,       567,
   59.0204,       595,
   59.0406,       588,
   59.0607,       638,
   59.0809,       565,
   59.1011,       538,
   59.1213,       602,
   59.1414,       575,
   59.1616,       628,
   59.1818,       639,
   59.2019,       636,
   59.2221,       639,
   59.2423,       590,
   59.2624,       595,
   59.2826,       612,
   59.3028,       580,
   59.3229,       615,
   59.3431,       575,
   59.3633,       582,
   59.3834,       592,
   59.4036,       602,
   59.4238,       636,
   59.4439,       613,
   59.4641,       602,
   59.4843,       615,
   59.5045,       607,
   59.5246,       602,
   59.5448,       613,
    59.565,       593,
   59.5851,       576,
   59.6053,       626,
   59.6255,       604,
   59.6456,       649,
   59.6658,       606,
    59.686,       589,
   59.7061,       614,
   59.7263,       601,
   59.7465,       580,
   59.7666,       566,
   59.7868,       589,
    59.807,       599,
   59.8271,       577,
   59.8473,       597,
   59.8675,       585,
   59.8877,       609,
   59.9078,       649,
    59.928,       602,
   59.9482,       616,
   59.9683,       608,
   59.9885,       611,
   60.0087,       619,
   60.0288,       628,
    60.049,       559,
   60.0692,       571,
   60.0893,       599,
   60.1095,       599,
   60.1297,       546,
   60.1498,       603,
     60.17,       606,
   60.1902,       648,
   60.2104,       617,
   60.2305,       584,
   60.2507,       609,
   60.2709,       597,
    60.291,       595,
   60.3112,       587,
   60.3314,       580,
   60.3515,       588,
   60.3717,       565,
   60.3919,       632,
    60.412,       608,
   60.4322,       598,
   60.4524,       584,
   60.4725,       599,
   60.4927,       589,
   60.5129,       626,
    60.533,       622,
   60.5532,       604,
   60.5734,       546,
   60.5936,       622,
   60.6137,       618,
   60.6339,       586,
   60.6541,       616,
   60.6742,       617,
   60.6944,       613,
   60.7146,       610,
   60.7347,       597,
   60.7549,       603,
   60.7751,       547,
   60.7952,       593,
   60.8154,       597,
   60.8356,       587,
   60.8557,       589,
   60.8759,       609,
   60.8961,       610,
   60.9163,       554,
   60.9364,       605,
   60.9566,       572,
   60.9768,       608,
   60.9969,       618,
   61.0171,       591,
   61.0373,       596,
   61.0574,       569,
   61.0776,       600,
   61.0978,       581,
   61.1179,       636,
   61.1381,       625,
   61.1583,       585,
   61.1784,       576,
   61.1986,       599,
   61.2188,       613,
   61.2389,       588,
   61.2591,       580,
   61.2793,       586,
   61.2995,       634,
   61.3196,       609,
   61.3398,       613,
     61.36,       620,
   61.3801,       611,
   61.4003,       576,
   61.4205,       569,
   61.4406,       561,
   61.4608,       591,
    61.481,       640,
   61.5011,       634,
   61.5213,       592,
   61.5415,       592,
   61.5616,       600,
   61.5818,       555,
    61.602,       611,
   61.6221,       605,
   61.6423,       626,
   61.6625,       578,
   61.6827,       593,
   61.7028,       590,
    61.723,       579,
   61.7432,       601,
   61.7633,       613,
   61.7835,       573,
   61.8037,       590,
   61.8238,       622,
    61.844,       606,
   61.8642,       614,
   61.8843,       578,
   61.9045,       578,
   61.9247,       591,
   61.9448,       583,
    61.965,       600,
   61.9852,       627,
   62.0054,       613,
   62.0255,       617,
   62.0457,       571,
   62.0659,       595,
    62.086,       582,
   62.1062,       575,
   62.1264,       634,
   62.1465,       630,
   62.1667,       566,
   62.1869,       576,
    62.207,       623,
   62.2272,       602,
   62.2474,       595,
   62.2675,       638,
   62.2877,       593,
   62.3079,       587,
    62.328,       650,
   62.3482,       608,
   62.3684,       642,
   62.3886,       669,
   62.4087,       577,
   62.4289,       607,
   62.4491,       627,
   62.4692,       633,
   62.4894,       618,
   62.5096,       594,
   62.5297,       605,
   62.5499,       558,
   62.5701,       611,
   62.5902,       563,
   62.6104,       604,
   62.6306,       611,
   62.6507,       540,
   62.6709,       602,
   62.6911,       590,
   62.7112,       624,
   62.7314,       603,
   62.7516,       596,
   62.7718,       642,
   62.7919,       615,
   62.8121,       579,
   62.8323,       606,
   62.8524,       603,
   62.8726,       573,
   62.8928,       606,
   62.9129,       584,
   62.9331,       593,
   62.9533,       591,
   62.9734,       631,
   62.9936,       545,
   63.0138,       564,
   63.0339,       607,
   63.0541,       615,
   63.0743,       581,
   63.0945,       587,
   63.1146,       586,
   63.1348,       580,
    63.155,       586,
   63.1751,       607,
   63.1953,       590,
   63.2155,       588,
   63.2356,       611,
   63.2558,       597,
    63.276,       641,
   63.2961,       651,
   63.3163,       603,
   63.3365,       588,
   63.3566,       629,
   63.3768,       558,
    63.397,       594,
   63.4171,       587,
   63.4373,       593,
   63.4575,       590,
   63.4777,       565,
   63.4978,       574,
    63.518,       549,
   63.5382,       576,
   63.5583,       613,
   63.5785,       602,
   63.5987,       604,
   63.6188,       600,
    63.639,       561,
   63.6592,       621,
   63.6793,       547,
   63.6995,       593,
   63.7197,       615,
   63.7398,       578,
     63.76,       613,
   63.7802,       634,
   63.8003,       580,
   63.8205,       604,
   63.8407,       607,
   63.8609,       572,
    63.881,       621,
   63.9012,       639,
   63.9214,       643,
   63.9415,       560,
   63.9617,       562,
   63.9819,       582,
    64.002,       621,
   64.0222,       550,
   64.0424,       584,
   64.0625,       613,
   64.0827,       595,
   64.1029,       574,
    64.123,       560,
   64.1432,       646,
   64.1634,       589,
   64.1836,       571,
   64.2037,       606,
   64.2239,       560,
   64.2441,       591,
   64.2642,       596,
   64.2844,       599,
   64.3046,       582,
   64.3247,       570,
   64.3449,       613,
   64.3651,       573,
   64.3852,       579,
   64.4054,       628,
   64.4256,       599,
   64.4457,       571,
   64.4659,       613,
   64.4861,       558,
   64.5062,       612,
   64.5264,       638,
   64.5466,       609,
   64.5668,       575,
   64.5869,       611,
   64.6071,       573,
   64.6273,       617,
   64.6474,       588,
   64.6676,       634,
   64.6878,       556,
   64.7079,       588,
   64.7281,       586,
   64.7483,       589,
   64.7684,       624,
   64.7886,       651,
   64.8088,       585,
   64.8289,       592,
   64.8491,       598,
   64.8693,       586,
   64.8894,       612,
   64.9096,       565,
   64.9298,       550,
     64.95,       589,
   64.9701,       608,
   64.9903,       580,
   65.0105,       559,
   65.0306,       608,
   65.0508,       595,
    65.071,       626,
   65.0911,       552,
   65.1113,       584,
   65.1315,       580,
   65.1516,       574,
   65.1718,       584,
    65.192,       610,
   65.2121,       653,
   65.2323,       611,
   65.2525,       591,
   65.2727,       587,
   65.2928,       561,
    65.313,       572,
   65.3332,       573,
   65.3533,       578,
   65.3735,       588,
   65.3937,       592,
   65.4138,       585,
    65.434,       588,
   65.4542,       546,
   65.4743,       567,
   65.4945,       650,
   65.5147,       567,
   65.5348,       605,
    65.555,       590,
   65.5752,       591,
   65.5953,       581,
   65.6155,       569,
   65.6357,       578,
   65.6559,       612,
    65.676,       572,
   65.6962,       578,
   65.7164,       560,
   65.7365,       618,
   65.7567,       599,
   65.7769,       629,
    65.797,       553,
   65.8172,       556,
   65.8374,       594,
   65.8575,       549,
   65.8777,       621,
   65.8979,       583,
    65.918,       634,
   65.9382,       604,
   65.9584,       538,
   65.9786,       594,
   65.9987,       619,
   66.0189,       558,
   66.0391,       587,
   66.0592,       596,
   66.0794,       574,
   66.0996,       593,
   66.1197,       606,
   66.1399,       574,
   66.1601,       615,
   66.1802,       609,
   66.2004,       593,
   66.2206,       541,
   66.2407,       595,
   66.2609,       589,
   66.2811,       597,
   66.3012,       639,
   66.3214,       594,
   66.3416,       594,
   66.3618,       602,
   66.3819,       618,
   66.4021,       586,
   66.4223,       594,
   66.4424,       578,
   66.4626,       678,
   66.4828,       595,
   66.5029,       582,
   66.5231,       592,
   66.5433,       575,
   66.5634,       616,
   66.5836,       616,
   66.6038,       600,
   66.6239,       640,
   66.6441,       626,
   66.6643,       584,
   66.6844,       606,
   66.7046,       583,
   66.7248,       634,
    66.745,       623,
   66.7651,       576,
   66.7853,       608,
   66.8055,       609,
   66.8256,       549,
   66.8458,       649,
    66.866,       620,
   66.8861,       616,
   66.9063,       617,
   66.9265,       602,
   66.9466,       607,
   66.9668,       588,
    66.987,       580,
   67.0071,       615,
   67.0273,       605,
   67.0475,       590,
   67.0677,       582,
   67.0878,       563,
    67.108,       546,
   67.1282,       559,
   67.1483,       632,
   67.1685,       579,
   67.1887,       613,
   67.2088,       552,
    67.229,       547,
   67.2492,       591,
   67.2693,       577,
   67.2895,       588,
   67.3097,       633,
   67.3298,       602,
     67.35,       570,
   67.3702,       559,
   67.3903,       586,
   67.4105,       576,
   67.4307,       597,
   67.4509,       633,
    67.471,       595,
   67.4912,       573,
   67.5114,       577,
   67.5315,       638,
   67.5517,       601,
   67.5719,       609,
    67.592,       531,
   67.6122,       602,
   67.6324,       565,
   67.6525,       549,
   67.6727,       609,
   67.6929,       580,
    67.713,       643,
   67.7332,       617,
   67.7534,       623,
   67.7735,       636,
   67.7937,       564,
   67.8139,       553,
   67.8341,       563,
   67.8542,       620,
   67.8744,       616,
   67.8946,       585,
   67.9147,       616,
   67.9349,       577,
   67.9551,       601,
   67.9752,       593,
   67.9954,       605,
   68.0156,       597,
   68.0357,       589,
   68.0559,       544,
   68.0761,       581,
   68.0962,       598,
   68.1164,       598,
   68.1366,       573,
   68.1568,       620,
   68.1769,       627,
   68.1971,       612,
   68.2173,       584,
   68.2374,       576,
   68.2576,       600,
   68.2778,       594,
   68.2979,       576,
   68.3181,       628,
   68.3383,       603,
   68.3584,       594,
   68.3786,       624,
   68.3988,       594,
   68.4189,       640,
   68.4391,       617,
   68.4593,       612,
   68.4794,       607,
   68.4996,       533,
   68.5198,       578,
     68.54,       585,
   68.5601,       631,
   68.5803,       602,
   68.6005,       562,
   68.6206,       599,
   68.6408,       646,
    68.661,       575,
   68.6811,       592,
   68.7013,       567,
   68.7215,       575,
   68.7416,       605,
   68.7618,       598,
    68.782,       612,
   68.8021,       599,
   68.8223,       603,
   68.8425,       563,
   68.8626,       596,
   68.8828,       603,
    68.903,       625,
   68.9232,       595,
   68.9433,       590,
   68.9635,       599,
   68.9837,       605,
   69.0038,       582,
    69.024,       575,
   69.0442,       577,
   69.0643,       559,
   69.0845,       569,
   69.1047,       567,
   69.1248,       594,
    69.145,       567,
   69.1652,       572,
   69.1853,       563,
   69.2055,       610,
   69.2257,       582,
   69.2459,       572,
    69.266,       556,
   69.2862,       618,
   69.3064,       604,
   69.3265,       610,
   69.3467,       565,
   69.3669,       599,
    69.387,       578,
   69.4072,       572,
   69.4274,       577,
   69.4475,       633,
   69.4677,       599,
   69.4879,       589,
    69.508,       595,
   69.5282,       596,
   69.5484,       635,
   69.5685,       599,
   69.5887,       613,
   69.6089,       611,
   69.6291,       572,
   69.6492,       593,
   69.6694,       615,
   69.6896,       604,
   69.7097,       585,
   69.7299,       578,
   69.7501,       580,
   69.7702,       569,
   69.7904,       582,
   69.8106,       617,
   69.8307,       561,
   69.8509,       599,
   69.8711,       535,
   69.8912,       588,
   69.9114,       562,
   69.9316,       632,
   69.9517,       608,
   69.9719,       579,
   69.9921,       598,
   70.0123,       575,
   70.0324,       618,
   70.0526,       569,
   70.0728,       577,
   70.0929,       579,
   70.1131,       591,
   70.1333,       577,
   70.1534,       651,
   70.1736,       602,
   70.1938,       546,
   70.2139,       662,
   70.2341,       592,
   70.2543,       622,
   70.2744,       588,
   70.2946,       580,
   70.3148,       566,
    70.335,       603,
   70.3551,       618,
   70.3753,       579,
   70.3955,       611,
   70.4156,       586,
   70.4358,       552,
    70.456,       588,
   70.4761,       583,
   70.4963,       596,
   70.5165,       619,
   70.5366,       622,
   70.5568,       593,
    70.577,       597,
   70.5971,       633,
   70.6173,       644,
   70.6375,       597,
   70.6576,       583,
   70.6778,       605,
    70.698,       592,
   70.7182,       595,
   70.7383,       583,
   70.7585,       608,
   70.7787,       617,
   70.7988,       560,
    70.819,       610,
   70.8392,       612,
   70.8593,       597,
   70.8795,       571,
   70.8997,       611,
   70.9198,       586,
     70.94,       573,
   70.9602,       608,
   70.9803,       625,
   71.0005,       597,
   71.0207,       616,
   71.0409,       582,
    71.061,       590,
   71.0812,       591,
   71.1014,       602,
   71.1215,       640,
   71.1417,       555,
   71.1619,       554,
    71.182,       566,
   71.2022,       592,
   71.2224,       551,
   71.2425,       569,
   71.2627,       598,
   71.2829,       615,
    71.303,       582,
   71.3232,       590,
   71.3434,       608,
   71.3635,       601,
   71.3837,       623,
   71.4039,       585,
   71.4241,       627,
   71.4442,       611,
   71.4644,       576,
   71.4846,       622,
   71.5047,       613,
   71.5249,       602,
   71.5451,       613,
   71.5652,       637,
   71.5854,       601,
   71.6056,       624,
   71.6257,       601,
   71.6459,       582,
   71.6661,       600,
   71.6862,       578,
   71.7064,       636,
   71.7266,       609,
   71.7467,       596,
   71.7669,       607,
   71.7871,       597,
   71.8073,       640,
   71.8274,       573,
   71.8476,       635,
   71.8678,       587,
   71.8879,       597,
   71.9081,       637,
   71.9283,       619,
   71.9484,       607,
   71.9686,       591,
   71.9888,       581,
   72.0089,       593,
   72.0291,       603,
   72.0493,       564,
   72.0694,       599,
   72.0896,       618,
   72.1098,       641,
     72.13,       581,
   72.1501,       598,
   72.1703,       652,
   72.1905,       573,
   72.2106,       618,
   72.2308,       616,
    72.251,       583,
   72.2711,       605,
   72.2913,       601,
   72.3115,       600,
   72.3316,       616,
   72.3518,       611,
    72.372,       577,
   72.3921,       627,
   72.4123,       587,
   72.4325,       620,
   72.4526,       602,
   72.4728,       625,
    72.493,       635,
   72.5132,       610,
   72.5333,       618,
   72.5535,       592,
   72.5737,       599,
   72.5938,       633,
    72.614,       607,
   72.6342,       583,
   72.6543,       602,
   72.6745,       614,
   72.6947,       559,
   72.7148,       599,
    72.735,       595,
   72.7552,       625,
   72.7753,       603,
   72.7955,       595,
   72.8157,       632,
   72.8358,       614,
    72.856,       608,
   72.8762,       576,
   72.8964,       635,
   72.9165,       572,
   72.9367,       591,
   72.9569,       624,
    72.977,       626,
   72.9972,       635,
   73.0174,       592,
   73.0375,       637,
   73.0577,       579,
   73.0779,       603,
    73.098,       617,
   73.1182,       604,
   73.1384,       642,
   73.1585,       586,
   73.1787,       608,
   73.1989,       641,
   73.2191,       629,
   73.2392,       658,
   73.2594,       620,
   73.2796,       611,
   73.2997,       634,
   73.3199,       638,
   73.3401,       622,
   73.3602,       587,
   73.3804,       621,
   73.4006,       656,
   73.4207,       656,
   73.4409,       624,
   73.4611,       620,
   73.4812,       662,
   73.5014,       663,
   73.5216,       672,
   73.5417,       654,
   73.5619,       700,
   73.5821,       660,
   73.6023,       675,
   73.6224,       631,
   73.6426,       661,
   73.6628,       699,
   73.6829,       636,
   73.7031,       689,
   73.7233,       695,
   73.7434,       686,
   73.7636,       713,
   73.7838,       750,
   73.8039,       719,
   73.8241,       750,
   73.8443,       749,
   73.8644,       762,
   73.8846,       804,
   73.9048,       839,
   73.9249,       902,
   73.9451,       920,
   73.9653,       907,
   73.9855,       897,
   74.0056,       934,
   74.0258,       986,
    74.046,      1001,
   74.0661,      1066,
   74.0863,      1070,
   74.1065,      1148,
   74.1266,      1212,
   74.1468,      1311,
    74.167,      1379,
   74.1871,      1597,
   74.2073,      2002,
   74.2275,      2729,
   74.2476,      3938,
   74.2678,      5197,
    74.288,      5290,
   74.3082,      4295,
   74.3283,      2957,
   74.3485,      2182,
   74.3687,      1871,
   74.3888,      1714,
    74.409,      1636,
   74.4292,      1859,
   74.4493,      2252,
   74.4695,      2720,
   74.4897,      3132,
   74.5098,      3008,
     74.53,      2389,
   74.5502,      1859,
   74.5703,      1473,
   74.5905,      1183,
   74.6107,      1145,
   74.6308,      1044,
    74.651,       987,
   74.6712,       929,
   74.6914,       884,
   74.7115,       869,
   74.7317,       895,
   74.7519,       824,
    74.772,       802,
   74.7922,       792,
   74.8124,       768,
   74.8325,       799,
   74.8527,       774,
   74.8729,       706,
    74.893,       665,
   74.9132,       711,
   74.9334,       670,
   74.9535,       662,
   74.9737,       702,
   74.9939,       692,
    75.014,       776,
   75.0342,       659,
   75.0544,       641,
   75.0746,       692,
   75.0947,       693,
   75.1149,       645,
   75.1351,       661,
   75.1552,       709,
   75.1754,       660,
   75.1956,       667,
   75.2157,       695,
   75.2359,       658,
   75.2561,       625,
   75.2762,       657,
   75.2964,       629,
   75.3166,       685,
   75.3367,       635,
   75.3569,       614,
   75.3771,       674,
   75.3973,       676,
   75.4174,       664,
   75.4376,       626,
   75.4578,       592,
   75.4779,       627,
   75.4981,       618,
   75.5183,       640,
   75.5384,       632,
   75.5586,       579,
   75.5788,       628,
   75.5989,       585,
   75.6191,       634,
   75.6393,       659,
   75.6594,       570,
   75.6796,       566,
   75.6998,       617,
   75.7199,       608,
   75.7401,       641,
   75.7603,       639,
   75.7805,       658,
   75.8006,       598,
   75.8208,       648,
    75.841,       577,
   75.8611,       606,
   75.8813,       607,
   75.9015,       594,
   75.9216,       594,
   75.9418,       603,
    75.962,       570,
   75.9821,       597,
   76.0023,       619,
   76.0225,       577,
   76.0426,       582,
   76.0628,       556,
    76.083,       606,
   76.1032,       615,
   76.1233,       583,
   76.1435,       627,
   76.1637,       602,
   76.1838,       638,
    76.204,       594,
   76.2242,       592,
   76.2443,       627,
   76.2645,       579,
   76.2847,       590,
   76.3048,       632,
    76.325,       570,
   76.3452,       590,
   76.3653,       643,
   76.3855,       607,
   76.4057,       605,
   76.4258,       570,
    76.446,       586,
   76.4662,       595,
   76.4864,       626,
   76.5065,       633,
   76.5267,       642,
   76.5469,       602,
    76.567,       603,
   76.5872,       572,
   76.6074,       591,
   76.6275,       629,
   76.6477,       594,
   76.6679,       604,
    76.688,       628,
   76.7082,       604,
   76.7284,       564,
   76.7485,       575,
   76.7687,       580,
   76.7889,       577,
    76.809,       534,
   76.8292,       599,
   76.8494,       634,
   76.8696,       638,
   76.8897,       622,
   76.9099,       622,
   76.9301,       591,
   76.9502,       573,
   76.9704,       621,
   76.9906,       605,
   77.0107,       585,
   77.0309,       631,
   77.0511,       564,
   77.0712,       596,
   77.0914,       592,
   77.1116,       586,
   77.1317,       572,
   77.1519,       608,
   77.1721,       604,
   77.1923,       587,
   77.2124,       598,
   77.2326,       626,
   77.2528,       575,
   77.2729,       612,
   77.2931,       605,
   77.3133,       595,
   77.3334,       578,
   77.3536,       613,
   77.3738,       635,
   77.3939,       636,
   77.4141,       579,
   77.4343,       605,
   77.4544,       613,
   77.4746,       601,
   77.4948,       617,
   77.5149,       575,
   77.5351,       551,
   77.5553,       603,
   77.5755,       618,
   77.5956,       601,
   77.6158,       594,
    77.636,       593,
   77.6561,       625,
   77.6763,       611,
   77.6965,       622,
   77.7166,       562,
   77.7368,       633,
    77.757,       586,
   77.7771,       565,
   77.7973,       622,
   77.8175,       590,
   77.8376,       574,
   77.8578,       572,
    77.878,       596,
   77.8981,       573,
   77.9183,       617,
   77.9385,       597,
   77.9587,       610,
   77.9788,       597,
    77.999,       576,
