;RAW4.00
[RawHeader]
Date=11/26/2025
EstimatedTotalTime=426.6
FurtherDQLReading=0
HardwareIndicator=65519
MeasuredTotalTime=4.29487
MeasurementFlag=1
NumberOfMeasuredRanges=1
NumberOfRanges=1
Time=06:31:08

[VarInfo]
Type=USER
Flags=0
Value=Lab Manager

[VarInfo]
Type=SAMPLEID
Flags=0
Value=Commander Sample ID

[VarInfo]
Type=COMMENT
Flags=0
Value=

[VarInfo]
Type=UTF
Flags=0
Value=

[VarInfo]
Type=CREATOR
Flags=0
Value=V5Converter

[VarInfo]
Type=CREATOR_VERSION
Flags=0
Value=4.4.16.0

[HardwareConfiguration]
AbsorptionFactor=9999
ActivateAbsorber=0
Alpha1=1.5406
Alpha2=1.54439
AlphaAverage=1.54184
AlphaRatio=0.5
Analyzer=0
Anode=Cu
AntiScatteringSlit=9999
BeamOpticsFlags=0
Beta=1.39222
BetaRelativeIntensity=0
DeactivateAbsorber=0
DetectorSlit=9999
DivergenceSlit=9999
GoniometerControl=0
GoniometerDiameter=282
GoniometerModel=256
GoniometerStage=7
Monochromator=0
NearSampleSlit=9999
PrimarySollerSlit=9999
SampleChanger=0
SecondSollerSlit=9999
SynchronousAxis=0
ThinFilmAttachment=9999
WaveUnit=A

[RangeHeader]
ActuallyUsedLambda=1.54184
AdditionalDetectorMask=257
DataRecordLength=4
DelayTime=0
DisplayPlaneNumber=0
EstimatedScanTime=427
ExtraParametersMask=0
GeneratorCurrent=10
GeneratorVoltage=30
Increment=0.0201685
Increment3=0
NumberOfCompletedData=1885
NumberOfCounts=1
NumberOfDetectors=0
NumberOfDrives=3
NumberOfEncoderDrives=0
NumberOfMeasuredData=1885
NumberOfVaryingParameters=0
RangeStartTime=0
RotationSpeed=0
ScanMode=1
ScanType=Locked Coupled
SimulatedMeasConditions=0
SlitChangerIn=0
SmootingWidth=0
Start=40.0015
Steps=1885
SynchronousRotation=0
Time=33

[VarInfo]
Type=PSD_DISCRIM
Flags=0
Value=0.11;0.5

[VarInfo]
Type=OPTICS_V5
Flags=0
Value=H4sIAAAAAAAEAO1d63KjOhJ+Fda/zqmtBIPtXKaITzm2J+OaOHbFTnKmtrZcBORYZzC4AOey//d99hl2X2x1QViIS8C3JBN+TCaodWm6+2vUUkfS/nieW9IjcD3o2GcV5bBakYBtOCa0H84qS396oBxV/mhqF44NnTnwgdt25gvHBrbf0X1dQq1t78uzB88qM99ffJHlp6enw6faoeM+yGq1qsh/9i9HxgzM9QNoe75uG6AStjJfb1WRbqEH7y1wpc/BWWXFR0joAM9w4cInL/Bj4UHLsSW+3oXrLBc9NBZ6t3Pgojcb3P8FDH+o+7OzitwBj9AAMt+CrxUfl1Lblu55QRehTORzoM8XqLDt2L4ObeBy/coBc6yHluEvdYtxoR6o1ePT02O5h8TkLue4tzhrTW2EZGjqqBswQr3oFvyXjl+9OdUtD2hyGln7c259hcAyrwHqHhq4EDFpA/KbJ8lNjfKD1ToCFipvdm00JDA1OUbR6Btwou9Ab2HpL824AjQ5tXK8m+bF4OrHhPzodEft64TGrBVWDOsoPhpP1bBWhrxWvISy1r0hIUP+4r8skMLHrm78xG8sGODQhXPdfSHkZBMMakgD9GxISBvSeHkPOIFIQeOidilHx44baRI9r5mSRmyEDSxUYBJZ3blu/xy4JnCvAfYzAL0wsdX3b8s5NVnMwIfj6+8T9KPV/l7IxHm5Jhp5z0OvBh9BE+kGCS98DAk920dCZMIVSikeHA9SJulgmhwp1bAq2ZMXfZT4B2LSAxc+QFu3ogSlwl6OWi7Ssb/0moPwnSLFGmsYPPedJdIj0qJQrgWE0MJ5JCOdEXICmjFtjmnJUA7J0tRxpRHQLUBtYA3AytxYcejGiMm4JZa46kmmLG0LrhEWBa3xcus++8A2MZDfDYZpCWdMkQKtj5nwHfcltGVFk+OFGseMJxH2qHoYWND7cnJosmJN5ku1uCnh1+H65qyTKx3Y545jAR1NEG5s6BPpdiDSG56bXcI59IlYwiKvWdVk7knrgKm+tPxb3VoCboigVyQ96CPXTshnFewlKri/oQta5l9LD8GnYEuZYx67mbHTJoqe6ZblPK0cjVCOarZnwPgJzFUVVqC1ESPOHKsWvx33pNH5Zl7erhEyxkg2xVq1lr7TdoHug6HrLIDrvzAWEyiR9/eIRfdMhLKr5fweuE21rslCEdaQRS08UPF//xMyUSUc9B0TNG8Quqbos4xMnTwz90Y+PzEHluy7tuWt5HgP/ND5vNXOHBXjLvaN2aNbYuh5A79Evm3IJvErCL6JJ23LP418rD3OPSHRTOHDEjnla/gw85sIdabECnU0BoKwUKWYS+vrz5fAfvBnTbXRwKJhj2nOjrJISkNktZevObqMVm/q5DL4SnFwGS02cm5pFninPwKqkpa1mOmKYIUieVuWOJh2nCVqyWzxf//ehzWm2Nxw9uJBQ7dIeQJnTA/KYaNePXrNFtfo7ca2MPfItOjcf/WMZelYS+paugfVBtErK9H60Ibz5bx5oBwenx4fndaUWv3kSK0pjePu32vVE4S4oAZGIvklvWZQ4W0Rs4b0UpC0Rk/7QJiajTD10yOsXjvdJsRYdyXGNhLfFkDGuto1yh6Bqz+IoV6M/ulxppzUt4kz1l2Js43EtwWcsa52jLNz4OupIMPET46w2qmqqttD2Kq7EmEbiW9jhK262jHCrvGaRirECHVXGHuvCFutth02NsJWrKMSVWsKbh08xTrZCZK+OsbSG7gQ2D5ZHRSgJJK3tspG1g4H057tH9XfH6CibEVXr/OjKbkXhfRCBYDfqOeDOWLs0nmABl3VvJn0rm5bl73OpP2tN9TkFYkJfAye/WbPftQtiMQzg4uVjCJaIvW07+CFjI1lEf6uyTEWsnm67F2lsnIJbSARW0kbWtlk6OEgY+yhA20/e3B1k8GZLoaD0auqCHeKD6S58wgk35HmwJjpNrYKCTmTxd/SeKxl8/ienF2WXefzdFk9bOTm6N5Lz546UqiqhAVciZbr3FOQY3BWIVUkVBrdJr+ZtC6H31rRcrGRhEeyyEjkXXKxo0bYURPZUVPYUbPYUQuzEywL8PxEyoQBQloib5PW7UUWe0HrokySmCrg8D78PeybkkWGzrvjVjIvuH4+FiIbUQEDqBXeyxN46LJSkY3uZbffvRqnSMV2TCAFbaXVSDlkQmfBvNq4EkHsASVZZdetcW+QpTTSOp+8YlOLgL9pYnk4ToQicvl10J4MrpMZJONJkeZyfMe6Ed+xvgA2skTfcYU8TFacvPmcsQFLZ8dr7r82tXQiP3O7dSw/voYXlO4q5vl5u6WEjcypLxqFfRNqVSHyCL4FKaFHctihVBMCjFp1f7FErbF+MBEXRsEvZLo55TW19tJ1sT+LmlpQuitTm7f2YWpolHD6sQ1TaySFsh/E0uKy2LulDZ0nkgHOmxQp25WV3aUEnW+xcHMnRJr5lluqhymm+EkWW+4491hde7Ul3ssWbV9+7YtfJA0UTQyNGXBfyVbbPA8ud74bklUw60j9YgWfilQ/I4dzraYmBmuZ2QhiKJW9qxqLdLI3h6IxR/YytzAXT1vD42MIIXVJnC4nR8cylyaJ7OZRhxZeJcCPHu2eWH2ZQFkmUJYJlGUCZZlA+fE2xcsEyvezJV4mUP6aCCsTKN8TxsoEyl8VZ2UC5XvCWZlA+ashrEygfE8IKxMoywTKMoGyTKAsEyjLBMoygbJMoCwTKMsEyjKBskygLBMoywTKMoGyTKAsEyjLBMoygbJMoHzr+KNMoCwTKD9tAiXLkUS/iumT7KzT+Cmg4tm7GScqd+cL/4UkG4arGcVOT+72h4PRhP4scnoyGTg0xcTzk2U+BzLzcGMl7XBjde+HGw8WbefceR5MR45lATfhiGNKyDjkmKsg/WbotmTQQ8ElNJZEifQE7N/XgX9k+LhXSSBnuYaE6hunwkb7FPSZfOxxRGTIPPKL8PePe2KymphYK0bAR+scevtxXAin6Q2diJrmRGpv50S+wmdgEkNlcw/RmVjQz3IliCz1U2CAaRv4kdXICV5EJGb6ELHy5h6E61FQZYr/YA2o98gntQ/sOmq5XMfxeudlE7OmVzSsTJpYMhZe0hcRy1SR/jGf/zPDjH/DR/7fA2QfErQ9hAVgol98R9I5hWWaMq5mhBds4KeJUp0oaQYcIb5mwIVtN52ZmPP5qH/5US30lx930PRnYm4HLtvZktP8/WxBxzgL44DNsuvjPeVdZqh+7nWGuODWWWeI97KTtI5vABumgB1a+LnBszXslNBZz+i3gpzt3wSirjOzGenzhQXuZgBYY/QC/KUgIkkjH65UJ0ChmfamMj+F+lCxGJtFbxiJ1dIisfpGkRjhMR6HvT9h3thLD5hkeHHgLInKwm1g17oJl16CldWVYB+fXrg3mE494KdZfesZevz3Iay2B1ceYybnbh1ywVU1LSlVPTypn6qNRkNN8LvHjcOTRv24dqQqvK8VhNAM7mETbitc+w7DEUCRgJl9i2FYh7v9roNCXwNnMmzhLkORh4SYKLFGsfsMwz42ifVFRj70nYaF9FrM/4zwzYaj4jcbRuW787sNw+F2cbvhyRss3uHlOks3wMyxzMQtgMsX+xm8pBxzcfnj6s/ujy654bCjSsOZ7olX4OYEsRyOEwezQMpa3mDWKOO8X3k4Wj2jProvYAvX6KYzLmrzl7v28CTPUlxNiU9Yi8wL0ecUu0XdWrmWfniNJk2pxn6HJHazGl4xZ9PpjyfkXwFHw4ba6R6gstmscZebgP09bgIKCIswkLYN2N/zNmAmj6JSs3YC+59rJ1Cp53Ii1c+wFVhGSkUjpbRAqXF4dHrSUJRqPWmBqqEcHldP68dqfQeB0sontAHGieA9hcKI4+SmzLSadMAw70kjnLfkkW8dVkPLMIDnOS4E3hoRE+Mi7j2jlLwRUvyl1/ekrIcPHRqtqcpiLudicNWekB9FHA7lZ+eh0Ri4qHQnkdHp3mdFwxkkShPAfO0EGXBRYgTUqKlErdE1Wb0CGJXZGHSdNqGDKCsJ1TJnP6vqMuJUZpxuDuAUxgVFpsREEgUYMFu+rxszPNBZ5WDPRwluc5pzmitr4SQ+y+l5TBQhKMMCjfMcZLfIWj48ALPjYkzSv8ZE3eHvWs9sIu2S3oNHTCEVRwtgwGnwt6KsUpyC4BLvvcgEK46DYs5u+K03mpAfRZxdFKHbnGBVi0yvQisOP5lEYfRDEPwf22IqXU7pckqXI7qcECvsd+8VLsZPznhGTjB6jZVIzZz8ZA+dc9yig6ZEJvFifFQxXo8YAd9H0PIkfi6GHAXNPKxILbzB7vVR6AbplI5NtLGOuVT/5i2e1Rn4EFu+VFtBkewhB6uqmiyUa3yqI/WAkWUTj/6JxSqYYK6D6Pv/u9RXv2COAAA=

[PSD]
ActualTwoTheta=9999
FirstUsedChannel=0
FixedPSD=0
PSDOpening=4.99171
PSDType=5

[Drive]
DriveFlags=1
DriveName=2Theta
DriveNumber=2
DriveOffset=0
OffsetIndex=0
OscillationAmplitude=0
OscillationSpeed=0
StartPosition=40.0015

[Drive]
DriveFlags=1
DriveName=Theta
DriveNumber=1
DriveOffset=0
OffsetIndex=0
OscillationAmplitude=0
OscillationSpeed=0
StartPosition=20.0007

[Drive]
DriveFlags=1
DriveName=Phi
DriveNumber=3
DriveOffset=0
OffsetIndex=0
OscillationAmplitude=0
OscillationSpeed=0
StartPosition=0

[Data]
     Angle,       PSD,
   40.0015,       668,
   40.0217,       677,
   40.0418,       638,
    40.062,       655,
   40.0822,       675,
   40.1023,       691,
   40.1225,       661,
   40.1427,       628,
   40.1628,       690,
    40.183,       630,
   40.2032,       629,
   40.2233,       649,
   40.2435,       637,
   40.2637,       634,
   40.2838,       653,
    40.304,       693,
   40.3242,       670,
   40.3444,       650,
   40.3645,       681,
   40.3847,       643,
   40.4049,       601,
    40.425,       604,
   40.4452,       625,
   40.4654,       666,
   40.4855,       656,
   40.5057,       695,
   40.5259,       635,
    40.546,       634,
   40.5662,       641,
   40.5864,       644,
   40.6065,       687,
   40.6267,       638,
   40.6469,       588,
   40.6671,       619,
   40.6872,       620,
   40.7074,       675,
   40.7276,       612,
   40.7477,       629,
   40.7679,       634,
   40.7881,       624,
   40.8082,       651,
   40.8284,       603,
   40.8486,       669,
   40.8687,       611,
   40.8889,       640,
   40.9091,       660,
   40.9292,       645,
   40.9494,       634,
   40.9696,       590,
   40.9897,       652,
   41.0099,       633,
   41.0301,       633,
   41.0503,       632,
   41.0704,       648,
   41.0906,       660,
   41.1108,       692,
   41.1309,       660,
   41.1511,       644,
   41.1713,       641,
   41.1914,       644,
   41.2116,       697,
   41.2318,       663,
   41.2519,       597,
   41.2721,       604,
   41.2923,       641,
   41.3124,       657,
   41.3326,       676,
   41.3528,       616,
   41.3729,       681,
   41.3931,       688,
   41.4133,       632,
   41.4335,       637,
   41.4536,       656,
   41.4738,       623,
    41.494,       648,
   41.5141,       696,
   41.5343,       652,
   41.5545,       656,
   41.5746,       626,
   41.5948,       692,
    41.615,       661,
   41.6351,       631,
   41.6553,       716,
   41.6755,       647,
   41.6956,       662,
   41.7158,       626,
    41.736,       693,
   41.7562,       657,
   41.7763,       647,
   41.7965,       655,
   41.8167,       664,
   41.8368,       706,
    41.857,       705,
   41.8772,       731,
   41.8973,       693,
   41.9175,       716,
   41.9377,       764,
   41.9578,       747,
    41.978,       757,
   41.9982,       758,
   42.0183,       761,
   42.0385,       788,
   42.0587,       786,
   42.0788,       776,
    42.099,       764,
   42.1192,       836,
   42.1394,       790,
   42.1595,       792,
   42.1797,       818,
   42.1999,       772,
     42.22,       786,
   42.2402,       746,
   42.2604,       766,
   42.2805,       787,
   42.3007,       837,
   42.3209,       774,
    42.341,       789,
   42.3612,       778,
   42.3814,       832,
   42.4015,       765,
   42.4217,       835,
   42.4419,       814,
    42.462,       810,
   42.4822,       759,
   42.5024,       803,
   42.5226,       839,
   42.5427,       829,
   42.5629,       790,
   42.5831,       787,
   42.6032,       864,
   42.6234,       870,
   42.6436,       843,
   42.6637,       907,
   42.6839,       830,
   42.7041,       892,
   42.7242,       789,
   42.7444,       850,
   42.7646,       864,
   42.7847,       851,
   42.8049,       841,
   42.8251,       875,
   42.8453,       905,
   42.8654,       946,
   42.8856,       912,
   42.9058,       903,
   42.9259,       960,
   42.9461,      1053,
   42.9663,       995,
   42.9864,      1054,
   43.0066,      1168,
   43.0268,      1170,
   43.0469,      1291,
   43.0671,      1305,
   43.0873,      1356,
   43.1074,      1357,
   43.1276,      1410,
   43.1478,      1548,
   43.1679,      1688,
   43.1881,      1803,
   43.2083,      1932,
   43.2285,      2171,
   43.2486,      2454,
   43.2688,      2619,
    43.289,      2805,
   43.3091,      3119,
   43.3293,      3610,
   43.3495,      4523,
   43.3696,      6049,
   43.3898,      9244,
     43.41,     17754,
   43.4301,     35741,
   43.4503,     52941,
   43.4705,     47911,
   43.4906,     27384,
   43.5108,     16132,
    43.531,     16879,
   43.5511,     24778,
   43.5713,     28871,
   43.5915,     21351,
   43.6117,     11358,
   43.6318,      6249,
    43.652,      4198,
   43.6722,      3389,
   43.6923,      2871,
   43.7125,      2482,
   43.7327,      2201,
   43.7528,      2095,
    43.773,      1876,
   43.7932,      1693,
   43.8133,      1556,
   43.8335,      1467,
   43.8537,      1407,
   43.8738,      1253,
    43.894,      1236,
   43.9142,      1167,
   43.9344,      1105,
   43.9545,       999,
   43.9747,      1075,
   43.9949,      1004,
    44.015,      1000,
   44.0352,       924,
   44.0554,       998,
   44.0755,       922,
   44.0957,       928,
   44.1159,       952,
    44.136,       916,
   44.1562,       903,
   44.1764,       891,
   44.1965,       910,
   44.2167,       868,
   44.2369,       907,
    44.257,       868,
   44.2772,       862,
   44.2974,       798,
   44.3176,       848,
   44.3377,       878,
   44.3579,       787,
   44.3781,       827,
   44.3982,       757,
   44.4184,       837,
   44.4386,       827,
   44.4587,       790,
   44.4789,       784,
   44.4991,       831,
   44.5192,       792,
   44.5394,       788,
   44.5596,       730,
   44.5797,       781,
   44.5999,       749,
   44.6201,       808,
   44.6402,       738,
   44.6604,       800,
   44.6806,       744,
   44.7008,       762,
   44.7209,       743,
   44.7411,       745,
   44.7613,       805,
   44.7814,       737,
   44.8016,       752,
   44.8218,       712,
   44.8419,       737,
   44.8621,       761,
   44.8823,       729,
   44.9024,       751,
   44.9226,       775,
   44.9428,       726,
   44.9629,       725,
   44.9831,       710,
   45.0033,       758,
   45.0235,       688,
   45.0436,       731,
   45.0638,       751,
    45.084,       731,
   45.1041,       706,
   45.1243,       736,
   45.1445,       726,
   45.1646,       715,
   45.1848,       746,
    45.205,       750,
   45.2251,       791,
   45.2453,       793,
   45.2655,       718,
   45.2856,       724,
   45.3058,       724,
    45.326,       717,
   45.3461,       743,
   45.3663,       667,
   45.3865,       723,
   45.4067,       753,
   45.4268,       713,
    45.447,       786,
   45.4672,       725,
   45.4873,       753,
   45.5075,       699,
   45.5277,       814,
   45.5478,       713,
    45.568,       678,
   45.5882,       731,
   45.6083,       682,
   45.6285,       734,
   45.6487,       691,
   45.6688,       723,
    45.689,       690,
   45.7092,       715,
   45.7294,       663,
   45.7495,       712,
   45.7697,       734,
   45.7899,       693,
     45.81,       750,
   45.8302,       729,
   45.8504,       744,
   45.8705,       717,
   45.8907,       692,
   45.9109,       705,
    45.931,       716,
   45.9512,       747,
   45.9714,       692,
   45.9915,       692,
   46.0117,       777,
   46.0319,       645,
    46.052,       692,
   46.0722,       671,
   46.0924,       729,
   46.1126,       743,
   46.1327,       700,
   46.1529,       722,
   46.1731,       762,
   46.1932,       743,
   46.2134,       752,
   46.2336,       693,
   46.2537,       709,
   46.2739,       694,
   46.2941,       725,
   46.3142,       688,
   46.3344,       729,
   46.3546,       720,
   46.3747,       669,
   46.3949,       708,
   46.4151,       696,
   46.4352,       712,
   46.4554,       687,
   46.4756,       673,
   46.4958,       693,
   46.5159,       741,
   46.5361,       678,
   46.5563,       730,
   46.5764,       714,
   46.5966,       691,
   46.6168,       692,
   46.6369,       681,
   46.6571,       678,
   46.6773,       664,
   46.6974,       700,
   46.7176,       693,
   46.7378,       689,
   46.7579,       728,
   46.7781,       682,
   46.7983,       670,
   46.8185,       687,
   46.8386,       731,
   46.8588,       736,
    46.879,       671,
   46.8991,       721,
   46.9193,       716,
   46.9395,       723,
   46.9596,       699,
   46.9798,       696,
        47,       661,
   47.0201,       696,
   47.0403,       655,
   47.0605,       671,
   47.0806,       733,
   47.1008,       714,
    47.121,       700,
   47.1411,       757,
   47.1613,       666,
   47.1815,       708,
   47.2017,       701,
   47.2218,       697,
    47.242,       643,
   47.2622,       656,
   47.2823,       666,
   47.3025,       687,
   47.3227,       673,
   47.3428,       680,
    47.363,       694,
   47.3832,       687,
   47.4033,       675,
   47.4235,       660,
   47.4437,       663,
   47.4638,       706,
    47.484,       676,
   47.5042,       702,
   47.5243,       663,
   47.5445,       676,
   47.5647,       667,
   47.5849,       724,
    47.605,       703,
   47.6252,       689,
   47.6454,       710,
   47.6655,       721,
   47.6857,       694,
   47.7059,       727,
    47.726,       659,
   47.7462,       716,
   47.7664,       661,
   47.7865,       719,
   47.8067,       700,
   47.8269,       712,
    47.847,       690,
   47.8672,       728,
   47.8874,       706,
   47.9076,       713,
   47.9277,       678,
   47.9479,       653,
   47.9681,       688,
   47.9882,       653,
   48.0084,       673,
   48.0286,       679,
   48.0487,       680,
   48.0689,       682,
   48.0891,       677,
   48.1092,       688,
   48.1294,       676,
   48.1496,       656,
   48.1697,       627,
   48.1899,       669,
   48.2101,       662,
   48.2302,       603,
   48.2504,       699,
   48.2706,       663,
   48.2908,       711,
   48.3109,       690,
   48.3311,       704,
   48.3513,       650,
   48.3714,       670,
   48.3916,       724,
   48.4118,       662,
   48.4319,       701,
   48.4521,       699,
   48.4723,       752,
   48.4924,       670,
   48.5126,       698,
   48.5328,       700,
   48.5529,       643,
   48.5731,       663,
   48.5933,       682,
   48.6134,       661,
   48.6336,       703,
   48.6538,       678,
    48.674,       698,
   48.6941,       670,
   48.7143,       672,
   48.7345,       714,
   48.7546,       729,
   48.7748,       729,
    48.795,       721,
   48.8151,       699,
   48.8353,       711,
   48.8555,       713,
   48.8756,       733,
   48.8958,       750,
    48.916,       722,
   48.9361,       677,
   48.9563,       705,
   48.9765,       686,
   48.9967,       683,
   49.0168,       712,
    49.037,       714,
   49.0572,       673,
   49.0773,       721,
   49.0975,       703,
   49.1177,       696,
   49.1378,       740,
    49.158,       689,
   49.1782,       657,
   49.1983,       658,
   49.2185,       693,
   49.2387,       693,
   49.2588,       688,
    49.279,       726,
   49.2992,       745,
   49.3193,       724,
   49.3395,       734,
   49.3597,       684,
   49.3799,       695,
      49.4,       771,
   49.4202,       730,
   49.4404,       729,
   49.4605,       752,
   49.4807,       725,
   49.5009,       721,
    49.521,       715,
   49.5412,       734,
   49.5614,       778,
   49.5815,       742,
   49.6017,       686,
   49.6219,       717,
    49.642,       724,
   49.6622,       743,
   49.6824,       764,
   49.7025,       736,
   49.7227,       714,
   49.7429,       734,
   49.7631,       740,
   49.7832,       787,
   49.8034,       721,
   49.8236,       732,
   49.8437,       742,
   49.8639,       728,
   49.8841,       786,
   49.9042,       793,
   49.9244,       804,
   49.9446,       758,
   49.9647,       769,
   49.9849,       743,
   50.0051,       808,
   50.0252,       799,
   50.0454,       804,
   50.0656,       854,
   50.0858,       837,
   50.1059,       952,
   50.1261,       874,
   50.1463,       902,
   50.1664,       941,
   50.1866,       970,
   50.2068,       955,
   50.2269,      1008,
   50.2471,      1075,
   50.2673,      1104,
   50.2874,      1137,
   50.3076,      1180,
   50.3278,      1180,
   50.3479,      1291,
   50.3681,      1393,
   50.3883,      1436,
   50.4084,      1505,
   50.4286,      1570,
   50.4488,      1744,
    50.469,      2001,
   50.4891,      2392,
   50.5093,      3187,
   50.5295,      4920,
   50.5496,      7383,
   50.5698,     10059,
     50.59,     10560,
   50.6101,      8651,
   50.6303,      6040,
   50.6505,      4618,
   50.6706,      4591,
   50.6908,      5392,
    50.711,      6158,
   50.7311,      5728,
   50.7513,      4312,
   50.7715,      3024,
   50.7917,      2326,
   50.8118,      1834,
    50.832,      1534,
   50.8522,      1395,
   50.8723,      1284,
   50.8925,      1275,
   50.9127,      1132,
   50.9328,      1025,
    50.953,      1012,
   50.9732,      1059,
   50.9933,       984,
   51.0135,       940,
   51.0337,       929,
   51.0538,       869,
    51.074,       894,
   51.0942,       833,
   51.1143,       874,
   51.1345,       823,
   51.1547,       813,
   51.1749,       816,
    51.195,       728,
   51.2152,       778,
   51.2354,       740,
   51.2555,       777,
   51.2757,       768,
   51.2959,       751,
    51.316,       741,
   51.3362,       740,
   51.3564,       704,
   51.3765,       679,
   51.3967,       764,
   51.4169,       693,
    51.437,       806,
   51.4572,       699,
   51.4774,       724,
   51.4975,       646,
   51.5177,       745,
   51.5379,       766,
   51.5581,       715,
   51.5782,       699,
   51.5984,       726,
   51.6186,       687,
   51.6387,       701,
   51.6589,       690,
   51.6791,       685,
   51.6992,       718,
   51.7194,       689,
   51.7396,       642,
   51.7597,       672,
   51.7799,       687,
   51.8001,       701,
   51.8202,       676,
   51.8404,       665,
   51.8606,       685,
   51.8808,       653,
   51.9009,       680,
   51.9211,       649,
   51.9413,       679,
   51.9614,       701,
   51.9816,       707,
   52.0018,       695,
   52.0219,       652,
   52.0421,       690,
   52.0623,       675,
   52.0824,       639,
   52.1026,       673,
   52.1228,       650,
   52.1429,       639,
   52.1631,       665,
   52.1833,       607,
   52.2034,       676,
   52.2236,       679,
   52.2438,       682,
    52.264,       647,
   52.2841,       634,
   52.3043,       662,
   52.3245,       683,
   52.3446,       687,
   52.3648,       738,
    52.385,       683,
   52.4051,       655,
   52.4253,       656,
   52.4455,       667,
   52.4656,       678,
   52.4858,       655,
    52.506,       679,
   52.5261,       614,
   52.5463,       625,
   52.5665,       627,
   52.5866,       664,
   52.6068,       653,
    52.627,       631,
   52.6472,       672,
   52.6673,       633,
   52.6875,       657,
   52.7077,       656,
   52.7278,       660,
    52.748,       682,
   52.7682,       692,
   52.7883,       637,
   52.8085,       665,
   52.8287,       631,
   52.8488,       598,
    52.869,       671,
   52.8892,       637,
   52.9093,       619,
   52.9295,       652,
   52.9497,       676,
   52.9699,       691,
     52.99,       634,
   53.0102,       664,
   53.0304,       643,
   53.0505,       681,
   53.0707,       632,
   53.0909,       672,
    53.111,       631,
   53.1312,       682,
   53.1514,       663,
   53.1715,       656,
   53.1917,       668,
   53.2119,       621,
    53.232,       646,
   53.2522,       665,
   53.2724,       639,
   53.2925,       633,
   53.3127,       602,
   53.3329,       659,
   53.3531,       677,
   53.3732,       656,
   53.3934,       646,
   53.4136,       631,
   53.4337,       606,
   53.4539,       664,
   53.4741,       653,
   53.4942,       740,
   53.5144,       657,
   53.5346,       670,
   53.5547,       574,
   53.5749,       679,
   53.5951,       682,
   53.6152,       662,
   53.6354,       707,
   53.6556,       653,
   53.6757,       622,
   53.6959,       630,
   53.7161,       671,
   53.7363,       664,
   53.7564,       636,
   53.7766,       660,
   53.7968,       636,
   53.8169,       628,
   53.8371,       674,
   53.8573,       682,
   53.8774,       596,
   53.8976,       633,
   53.9178,       589,
   53.9379,       677,
   53.9581,       624,
   53.9783,       664,
   53.9984,       598,
   54.0186,       636,
   54.0388,       680,
    54.059,       659,
   54.0791,       630,
   54.0993,       635,
   54.1195,       653,
   54.1396,       649,
   54.1598,       647,
     54.18,       687,
   54.2001,       699,
   54.2203,       599,
   54.2405,       612,
   54.2606,       627,
   54.2808,       677,
    54.301,       649,
   54.3211,       624,
   54.3413,       683,
   54.3615,       610,
   54.3816,       631,
   54.4018,       630,
    54.422,       634,
   54.4422,       670,
   54.4623,       619,
   54.4825,       689,
   54.5027,       582,
   54.5228,       622,
    54.543,       638,
   54.5632,       614,
   54.5833,       649,
   54.6035,       624,
   54.6237,       652,
   54.6438,       638,
    54.664,       653,
   54.6842,       642,
   54.7043,       662,
   54.7245,       600,
   54.7447,       640,
   54.7648,       604,
    54.785,       635,
   54.8052,       664,
   54.8254,       690,
   54.8455,       681,
   54.8657,       639,
   54.8859,       665,
    54.906,       643,
   54.9262,       632,
   54.9464,       607,
   54.9665,       611,
   54.9867,       654,
   55.0069,       615,
    55.027,       631,
   55.0472,       667,
   55.0674,       653,
   55.0875,       605,
   55.1077,       665,
   55.1279,       600,
   55.1481,       635,
   55.1682,       642,
   55.1884,       656,
   55.2086,       647,
   55.2287,       612,
   55.2489,       628,
   55.2691,       626,
   55.2892,       657,
   55.3094,       665,
   55.3296,       664,
   55.3497,       651,
   55.3699,       620,
   55.3901,       657,
   55.4102,       654,
   55.4304,       685,
   55.4506,       649,
   55.4707,       663,
   55.4909,       649,
   55.5111,       630,
   55.5313,       635,
   55.5514,       600,
   55.5716,       653,
   55.5918,       663,
   55.6119,       605,
   55.6321,       678,
   55.6523,       615,
   55.6724,       595,
   55.6926,       611,
   55.7128,       610,
   55.7329,       651,
   55.7531,       622,
   55.7733,       634,
   55.7934,       669,
   55.8136,       640,
   55.8338,       613,
    55.854,       621,
   55.8741,       633,
   55.8943,       662,
   55.9145,       670,
   55.9346,       647,
   55.9548,       623,
    55.975,       583,
   55.9951,       632,
   56.0153,       699,
   56.0355,       630,
   56.0556,       680,
   56.0758,       640,
    56.096,       601,
   56.1161,       663,
   56.1363,       620,
   56.1565,       597,
   56.1766,       640,
   56.1968,       627,
    56.217,       638,
   56.2372,       602,
   56.2573,       635,
   56.2775,       623,
   56.2977,       582,
   56.3178,       610,
    56.338,       646,
   56.3582,       618,
   56.3783,       641,
   56.3985,       591,
   56.4187,       609,
   56.4388,       640,
    56.459,       609,
   56.4792,       616,
   56.4993,       634,
   56.5195,       631,
   56.5397,       632,
   56.5598,       614,
     56.58,       609,
   56.6002,       654,
   56.6204,       661,
   56.6405,       659,
   56.6607,       598,
   56.6809,       648,
    56.701,       676,
   56.7212,       649,
   56.7414,       584,
   56.7615,       651,
   56.7817,       620,
   56.8019,       609,
    56.822,       617,
   56.8422,       633,
   56.8624,       700,
   56.8825,       630,
   56.9027,       612,
   56.9229,       622,
   56.9431,       612,
   56.9632,       636,
   56.9834,       623,
   57.0036,       591,
   57.0237,       617,
   57.0439,       595,
   57.0641,       643,
   57.0842,       649,
   57.1044,       600,
   57.1246,       629,
   57.1447,       627,
   57.1649,       591,
   57.1851,       626,
   57.2052,       659,
   57.2254,       648,
   57.2456,       617,
   57.2657,       619,
   57.2859,       639,
   57.3061,       651,
   57.3263,       612,
   57.3464,       630,
   57.3666,       637,
   57.3868,       607,
   57.4069,       656,
   57.4271,       617,
   57.4473,       628,
   57.4674,       651,
   57.4876,       656,
   57.5078,       637,
   57.5279,       636,
   57.5481,       611,
   57.5683,       613,
   57.5884,       616,
   57.6086,       632,
   57.6288,       624,
   57.6489,       611,
   57.6691,       601,
   57.6893,       612,
   57.7095,       629,
   57.7296,       610,
   57.7498,       650,
     57.77,       644,
   57.7901,       647,
   57.8103,       636,
   57.8305,       612,
   57.8506,       634,
   57.8708,       640,
    57.891,       627,
   57.9111,       635,
   57.9313,       692,
   57.9515,       647,
   57.9716,       629,
   57.9918,       585,
    58.012,       648,
   58.0322,       688,
   58.0523,       647,
   58.0725,       645,
   58.0927,       603,
   58.1128,       612,
    58.133,       613,
   58.1532,       624,
   58.1733,       624,
   58.1935,       599,
   58.2137,       610,
   58.2338,       613,
    58.254,       595,
   58.2742,       636,
   58.2943,       623,
   58.3145,       633,
   58.3347,       610,
   58.3548,       594,
    58.375,       612,
   58.3952,       651,
   58.4154,       617,
   58.4355,       612,
   58.4557,       607,
   58.4759,       627,
    58.496,       613,
   58.5162,       640,
   58.5364,       659,
   58.5565,       636,
   58.5767,       631,
   58.5969,       609,
    58.617,       647,
   58.6372,       589,
   58.6574,       614,
   58.6775,       644,
   58.6977,       598,
   58.7179,       622,
    58.738,       600,
   58.7582,       649,
   58.7784,       617,
   58.7986,       622,
   58.8187,       581,
   58.8389,       633,
   58.8591,       634,
   58.8792,       620,
   58.8994,       638,
   58.9196,       630,
   58.9397,       610,
   58.9599,       591,
   58.9801,       598,
   59.0002,       613,
   59.0204,       600,
   59.0406,       594,
   59.0607,       654,
   59.0809,       677,
   59.1011,       616,
   59.1213,       643,
   59.1414,       635,
   59.1616,       611,
   59.1818,       660,
   59.2019,       630,
   59.2221,       620,
   59.2423,       648,
   59.2624,       641,
   59.2826,       660,
   59.3028,       621,
   59.3229,       646,
   59.3431,       599,
   59.3633,       655,
   59.3834,       598,
   59.4036,       625,
   59.4238,       614,
   59.4439,       626,
   59.4641,       649,
   59.4843,       601,
   59.5045,       588,
   59.5246,       595,
   59.5448,       606,
    59.565,       614,
   59.5851,       581,
   59.6053,       632,
   59.6255,       647,
   59.6456,       632,
   59.6658,       642,
    59.686,       622,
   59.7061,       604,
   59.7263,       653,
   59.7465,       597,
   59.7666,       657,
   59.7868,       637,
    59.807,       571,
   59.8271,       599,
   59.8473,       632,
   59.8675,       655,
   59.8877,       640,
   59.9078,       603,
    59.928,       620,
   59.9482,       625,
   59.9683,       627,
   59.9885,       666,
   60.0087,       685,
   60.0288,       605,
    60.049,       648,
   60.0692,       639,
   60.0893,       623,
   60.1095,       617,
   60.1297,       591,
   60.1498,       620,
     60.17,       634,
   60.1902,       638,
   60.2104,       685,
   60.2305,       621,
   60.2507,       557,
   60.2709,       598,
    60.291,       607,
   60.3112,       646,
   60.3314,       637,
   60.3515,       644,
   60.3717,       616,
   60.3919,       661,
    60.412,       623,
   60.4322,       656,
   60.4524,       625,
   60.4725,       609,
   60.4927,       607,
   60.5129,       630,
    60.533,       600,
   60.5532,       620,
   60.5734,       627,
   60.5936,       594,
   60.6137,       587,
   60.6339,       603,
   60.6541,       657,
   60.6742,       618,
   60.6944,       638,
   60.7146,       610,
   60.7347,       643,
   60.7549,       695,
   60.7751,       637,
   60.7952,       620,
   60.8154,       591,
   60.8356,       638,
   60.8557,       597,
   60.8759,       646,
   60.8961,       595,
   60.9163,       608,
   60.9364,       652,
   60.9566,       623,
   60.9768,       614,
   60.9969,       648,
   61.0171,       618,
   61.0373,       593,
   61.0574,       639,
   61.0776,       594,
   61.0978,       609,
   61.1179,       607,
   61.1381,       602,
   61.1583,       592,
   61.1784,       635,
   61.1986,       618,
   61.2188,       640,
   61.2389,       629,
   61.2591,       598,
   61.2793,       620,
   61.2995,       612,
   61.3196,       621,
   61.3398,       613,
     61.36,       615,
   61.3801,       621,
   61.4003,       645,
   61.4205,       611,
   61.4406,       632,
   61.4608,       629,
    61.481,       634,
   61.5011,       622,
   61.5213,       612,
   61.5415,       661,
   61.5616,       653,
   61.5818,       603,
    61.602,       666,
   61.6221,       638,
   61.6423,       606,
   61.6625,       608,
   61.6827,       593,
   61.7028,       582,
    61.723,       622,
   61.7432,       629,
   61.7633,       626,
   61.7835,       623,
   61.8037,       654,
   61.8238,       606,
    61.844,       628,
   61.8642,       622,
   61.8843,       606,
   61.9045,       590,
   61.9247,       603,
   61.9448,       589,
    61.965,       609,
   61.9852,       583,
   62.0054,       645,
   62.0255,       591,
   62.0457,       626,
   62.0659,       594,
    62.086,       614,
   62.1062,       636,
   62.1264,       592,
   62.1465,       668,
   62.1667,       615,
   62.1869,       644,
    62.207,       654,
   62.2272,       654,
   62.2474,       600,
   62.2675,       632,
   62.2877,       586,
   62.3079,       593,
    62.328,       634,
   62.3482,       626,
   62.3684,       614,
   62.3886,       588,
   62.4087,       614,
   62.4289,       619,
   62.4491,       641,
   62.4692,       625,
   62.4894,       599,
   62.5096,       634,
   62.5297,       611,
   62.5499,       598,
   62.5701,       639,
   62.5902,       592,
   62.6104,       629,
   62.6306,       585,
   62.6507,       629,
   62.6709,       594,
   62.6911,       631,
   62.7112,       625,
   62.7314,       614,
   62.7516,       625,
   62.7718,       619,
   62.7919,       624,
   62.8121,       596,
   62.8323,       575,
   62.8524,       591,
   62.8726,       602,
   62.8928,       587,
   62.9129,       616,
   62.9331,       633,
   62.9533,       585,
   62.9734,       620,
   62.9936,       665,
   63.0138,       584,
   63.0339,       638,
   63.0541,       597,
   63.0743,       607,
   63.0945,       569,
   63.1146,       641,
   63.1348,       600,
    63.155,       642,
   63.1751,       614,
   63.1953,       639,
   63.2155,       622,
   63.2356,       620,
   63.2558,       628,
    63.276,       587,
   63.2961,       618,
   63.3163,       629,
   63.3365,       625,
   63.3566,       602,
   63.3768,       645,
    63.397,       653,
   63.4171,       614,
   63.4373,       615,
   63.4575,       600,
   63.4777,       590,
   63.4978,       606,
    63.518,       610,
   63.5382,       617,
   63.5583,       612,
   63.5785,       625,
   63.5987,       636,
   63.6188,       629,
    63.639,       612,
   63.6592,       602,
   63.6793,       609,
   63.6995,       614,
   63.7197,       560,
   63.7398,       636,
     63.76,       630,
   63.7802,       602,
   63.8003,       610,
   63.8205,       617,
   63.8407,       601,
   63.8609,       640,
    63.881,       607,
   63.9012,       611,
   63.9214,       597,
   63.9415,       601,
   63.9617,       622,
   63.9819,       581,
    64.002,       585,
   64.0222,       569,
   64.0424,       643,
   64.0625,       605,
   64.0827,       636,
   64.1029,       629,
    64.123,       606,
   64.1432,       594,
   64.1634,       581,
   64.1836,       600,
   64.2037,       572,
   64.2239,       587,
   64.2441,       648,
   64.2642,       579,
   64.2844,       553,
   64.3046,       614,
   64.3247,       619,
   64.3449,       609,
   64.3651,       579,
   64.3852,       622,
   64.4054,       590,
   64.4256,       571,
   64.4457,       633,
   64.4659,       592,
   64.4861,       627,
   64.5062,       591,
   64.5264,       623,
   64.5466,       587,
   64.5668,       621,
   64.5869,       583,
   64.6071,       621,
   64.6273,       584,
   64.6474,       656,
   64.6676,       576,
   64.6878,       557,
   64.7079,       638,
   64.7281,       662,
   64.7483,       595,
   64.7684,       617,
   64.7886,       595,
   64.8088,       634,
   64.8289,       570,
   64.8491,       636,
   64.8693,       640,
   64.8894,       624,
   64.9096,       647,
   64.9298,       667,
     64.95,       591,
   64.9701,       641,
   64.9903,       611,
   65.0105,       575,
   65.0306,       618,
   65.0508,       604,
    65.071,       645,
   65.0911,       633,
   65.1113,       653,
   65.1315,       603,
   65.1516,       619,
   65.1718,       617,
    65.192,       612,
   65.2121,       634,
   65.2323,       604,
   65.2525,       576,
   65.2727,       604,
   65.2928,       595,
    65.313,       610,
   65.3332,       595,
   65.3533,       628,
   65.3735,       597,
   65.3937,       632,
   65.4138,       655,
    65.434,       592,
   65.4542,       629,
   65.4743,       628,
   65.4945,       625,
   65.5147,       652,
   65.5348,       626,
    65.555,       612,
   65.5752,       609,
   65.5953,       598,
   65.6155,       597,
   65.6357,       664,
   65.6559,       575,
    65.676,       637,
   65.6962,       604,
   65.7164,       628,
   65.7365,       610,
   65.7567,       597,
   65.7769,       641,
    65.797,       618,
   65.8172,       615,
   65.8374,       608,
   65.8575,       571,
   65.8777,       602,
   65.8979,       637,
    65.918,       661,
   65.9382,       621,
   65.9584,       663,
   65.9786,       627,
   65.9987,       616,
   66.0189,       598,
   66.0391,       616,
   66.0592,       617,
   66.0794,       636,
   66.0996,       650,
   66.1197,       640,
   66.1399,       639,
   66.1601,       628,
   66.1802,       624,
   66.2004,       620,
   66.2206,       632,
   66.2407,       620,
   66.2609,       609,
   66.2811,       565,
   66.3012,       617,
   66.3214,       650,
   66.3416,       636,
   66.3618,       604,
   66.3819,       614,
   66.4021,       584,
   66.4223,       598,
   66.4424,       585,
   66.4626,       594,
   66.4828,       608,
   66.5029,       608,
   66.5231,       611,
   66.5433,       687,
   66.5634,       627,
   66.5836,       644,
   66.6038,       600,
   66.6239,       606,
   66.6441,       613,
   66.6643,       641,
   66.6844,       673,
   66.7046,       614,
   66.7248,       635,
    66.745,       590,
   66.7651,       571,
   66.7853,       605,
   66.8055,       578,
   66.8256,       621,
   66.8458,       612,
    66.866,       606,
   66.8861,       618,
   66.9063,       601,
   66.9265,       590,
   66.9466,       601,
   66.9668,       627,
    66.987,       592,
   67.0071,       644,
   67.0273,       643,
   67.0475,       640,
   67.0677,       640,
   67.0878,       594,
    67.108,       598,
   67.1282,       617,
   67.1483,       623,
   67.1685,       610,
   67.1887,       593,
   67.2088,       613,
    67.229,       600,
   67.2492,       595,
   67.2693,       600,
   67.2895,       626,
   67.3097,       600,
   67.3298,       638,
     67.35,       631,
   67.3702,       607,
   67.3903,       628,
   67.4105,       626,
   67.4307,       626,
   67.4509,       648,
    67.471,       571,
   67.4912,       618,
   67.5114,       583,
   67.5315,       616,
   67.5517,       631,
   67.5719,       605,
    67.592,       627,
   67.6122,       606,
   67.6324,       621,
   67.6525,       645,
   67.6727,       580,
   67.6929,       613,
    67.713,       595,
   67.7332,       606,
   67.7534,       580,
   67.7735,       616,
   67.7937,       629,
   67.8139,       629,
   67.8341,       598,
   67.8542,       578,
   67.8744,       595,
   67.8946,       607,
   67.9147,       594,
   67.9349,       610,
   67.9551,       599,
   67.9752,       615,
   67.9954,       595,
   68.0156,       568,
   68.0357,       616,
   68.0559,       629,
   68.0761,       616,
   68.0962,       593,
   68.1164,       624,
   68.1366,       599,
   68.1568,       582,
   68.1769,       632,
   68.1971,       593,
   68.2173,       591,
   68.2374,       592,
   68.2576,       580,
   68.2778,       610,
   68.2979,       615,
   68.3181,       590,
   68.3383,       625,
   68.3584,       588,
   68.3786,       621,
   68.3988,       616,
   68.4189,       592,
   68.4391,       612,
   68.4593,       598,
   68.4794,       596,
   68.4996,       605,
   68.5198,       586,
     68.54,       649,
   68.5601,       588,
   68.5803,       632,
   68.6005,       569,
   68.6206,       631,
   68.6408,       599,
    68.661,       570,
   68.6811,       615,
   68.7013,       593,
   68.7215,       599,
   68.7416,       608,
   68.7618,       624,
    68.782,       561,
   68.8021,       595,
   68.8223,       630,
   68.8425,       628,
   68.8626,       639,
   68.8828,       602,
    68.903,       594,
   68.9232,       608,
   68.9433,       625,
   68.9635,       645,
   68.9837,       592,
   69.0038,       632,
    69.024,       630,
   69.0442,       639,
   69.0643,       589,
   69.0845,       588,
   69.1047,       624,
   69.1248,       622,
    69.145,       617,
   69.1652,       591,
   69.1853,       613,
   69.2055,       640,
   69.2257,       580,
   69.2459,       584,
    69.266,       606,
   69.2862,       604,
   69.3064,       580,
   69.3265,       630,
   69.3467,       633,
   69.3669,       606,
    69.387,       568,
   69.4072,       613,
   69.4274,       634,
   69.4475,       621,
   69.4677,       630,
   69.4879,       598,
    69.508,       641,
   69.5282,       591,
   69.5484,       587,
   69.5685,       622,
   69.5887,       584,
   69.6089,       585,
   69.6291,       604,
   69.6492,       633,
   69.6694,       612,
   69.6896,       657,
   69.7097,       576,
   69.7299,       604,
   69.7501,       562,
   69.7702,       590,
   69.7904,       643,
   69.8106,       587,
   69.8307,       600,
   69.8509,       571,
   69.8711,       579,
   69.8912,       629,
   69.9114,       594,
   69.9316,       591,
   69.9517,       617,
   69.9719,       587,
   69.9921,       617,
   70.0123,       664,
   70.0324,       641,
   70.0526,       633,
   70.0728,       628,
   70.0929,       656,
   70.1131,       613,
   70.1333,       617,
   70.1534,       579,
   70.1736,       615,
   70.1938,       609,
   70.2139,       611,
   70.2341,       602,
   70.2543,       612,
   70.2744,       609,
   70.2946,       654,
   70.3148,       638,
    70.335,       616,
   70.3551,       591,
   70.3753,       602,
   70.3955,       595,
   70.4156,       614,
   70.4358,       571,
    70.456,       653,
   70.4761,       635,
   70.4963,       606,
   70.5165,       612,
   70.5366,       595,
   70.5568,       610,
    70.577,       626,
   70.5971,       590,
   70.6173,       615,
   70.6375,       593,
   70.6576,       597,
   70.6778,       610,
    70.698,       628,
   70.7182,       638,
   70.7383,       604,
   70.7585,       583,
   70.7787,       577,
   70.7988,       618,
    70.819,       596,
   70.8392,       631,
   70.8593,       643,
   70.8795,       597,
   70.8997,       603,
   70.9198,       598,
     70.94,       599,
   70.9602,       573,
   70.9803,       626,
   71.0005,       618,
   71.0207,       663,
   71.0409,       624,
    71.061,       622,
   71.0812,       586,
   71.1014,       601,
   71.1215,       642,
   71.1417,       642,
   71.1619,       602,
    71.182,       620,
   71.2022,       639,
   71.2224,       621,
   71.2425,       654,
   71.2627,       600,
   71.2829,       627,
    71.303,       609,
   71.3232,       635,
   71.3434,       624,
   71.3635,       650,
   71.3837,       613,
   71.4039,       618,
   71.4241,       638,
   71.4442,       602,
   71.4644,       628,
   71.4846,       612,
   71.5047,       609,
   71.5249,       635,
   71.5451,       657,
   71.5652,       605,
   71.5854,       636,
   71.6056,       631,
   71.6257,       644,
   71.6459,       607,
   71.6661,       679,
   71.6862,       608,
   71.7064,       618,
   71.7266,       615,
   71.7467,       612,
   71.7669,       628,
   71.7871,       663,
   71.8073,       651,
   71.8274,       667,
   71.8476,       630,
   71.8678,       618,
   71.8879,       630,
   71.9081,       610,
   71.9283,       592,
   71.9484,       610,
   71.9686,       625,
   71.9888,       620,
   72.0089,       618,
   72.0291,       661,
   72.0493,       619,
   72.0694,       615,
   72.0896,       603,
   72.1098,       577,
     72.13,       616,
   72.1501,       631,
   72.1703,       614,
   72.1905,       605,
   72.2106,       610,
   72.2308,       626,
    72.251,       614,
   72.2711,       568,
   72.2913,       645,
   72.3115,       593,
   72.3316,       651,
   72.3518,       645,
    72.372,       631,
   72.3921,       617,
   72.4123,       611,
   72.4325,       641,
   72.4526,       608,
   72.4728,       640,
    72.493,       600,
   72.5132,       644,
   72.5333,       632,
   72.5535,       639,
   72.5737,       631,
   72.5938,       621,
    72.614,       652,
   72.6342,       624,
   72.6543,       649,
   72.6745,       654,
   72.6947,       612,
   72.7148,       657,
    72.735,       637,
   72.7552,       671,
   72.7753,       640,
   72.7955,       614,
   72.8157,       629,
   72.8358,       685,
    72.856,       598,
   72.8762,       631,
   72.8964,       603,
   72.9165,       659,
   72.9367,       627,
   72.9569,       665,
    72.977,       641,
   72.9972,       621,
   73.0174,       644,
   73.0375,       666,
   73.0577,       633,
   73.0779,       633,
    73.098,       678,
   73.1182,       667,
   73.1384,       685,
   73.1585,       686,
   73.1787,       637,
   73.1989,       630,
   73.2191,       614,
   73.2392,       614,
   73.2594,       653,
   73.2796,       686,
   73.2997,       652,
   73.3199,       647,
   73.3401,       640,
   73.3602,       633,
   73.3804,       679,
   73.4006,       666,
   73.4207,       691,
   73.4409,       653,
   73.4611,       668,
   73.4812,       639,
   73.5014,       686,
   73.5216,       665,
   73.5417,       691,
   73.5619,       620,
   73.5821,       660,
   73.6023,       677,
   73.6224,       683,
   73.6426,       693,
   73.6628,       682,
   73.6829,       698,
   73.7031,       705,
   73.7233,       772,
   73.7434,       687,
   73.7636,       751,
   73.7838,       732,
   73.8039,       787,
   73.8241,       866,
   73.8443,       792,
   73.8644,       884,
   73.8846,       947,
   73.9048,       888,
   73.9249,       913,
   73.9451,       861,
   73.9653,       862,
   73.9855,       925,
   74.0056,       925,
   74.0258,       976,
    74.046,      1014,
   74.0661,      1078,
   74.0863,      1223,
   74.1065,      1363,
   74.1266,      1615,
   74.1468,      2017,
    74.167,      2670,
   74.1871,      4269,
   74.2073,      6838,
   74.2275,     10163,
   74.2476,     11412,
   74.2678,      9654,
    74.288,      6300,
   74.3082,      4020,
   74.3283,      2725,
   74.3485,      2270,
   74.3687,      2102,
   74.3888,      2515,
    74.409,      3281,
   74.4292,      4611,
   74.4493,      5989,
   74.4695,      5998,
   74.4897,      4627,
   74.5098,      3262,
     74.53,      2183,
   74.5502,      1650,
   74.5703,      1317,
   74.5905,      1143,
   74.6107,      1008,
   74.6308,       937,
    74.651,       905,
   74.6712,       889,
   74.6914,       875,
   74.7115,       862,
   74.7317,       841,
   74.7519,       771,
    74.772,       709,
   74.7922,       771,
   74.8124,       747,
   74.8325,       719,
   74.8527,       715,
   74.8729,       686,
    74.893,       738,
   74.9132,       742,
   74.9334,       680,
   74.9535,       671,
   74.9737,       697,
   74.9939,       635,
    75.014,       672,
   75.0342,       713,
   75.0544,       663,
   75.0746,       635,
   75.0947,       662,
   75.1149,       669,
   75.1351,       656,
   75.1552,       620,
   75.1754,       636,
   75.1956,       654,
   75.2157,       643,
   75.2359,       693,
   75.2561,       593,
   75.2762,       609,
   75.2964,       672,
   75.3166,       625,
   75.3367,       644,
   75.3569,       667,
   75.3771,       644,
   75.3973,       660,
   75.4174,       630,
   75.4376,       615,
   75.4578,       647,
   75.4779,       603,
   75.4981,       655,
   75.5183,       663,
   75.5384,       616,
   75.5586,       635,
   75.5788,       615,
   75.5989,       632,
   75.6191,       633,
   75.6393,       668,
   75.6594,       656,
   75.6796,       621,
   75.6998,       630,
   75.7199,       621,
   75.7401,       625,
   75.7603,       620,
   75.7805,       601,
   75.8006,       610,
   75.8208,       605,
    75.841,       603,
   75.8611,       661,
   75.8813,       621,
   75.9015,       614,
   75.9216,       613,
   75.9418,       622,
    75.962,       638,
   75.9821,       670,
   76.0023,       655,
   76.0225,       633,
   76.0426,       644,
   76.0628,       605,
    76.083,       624,
   76.1032,       625,
   76.1233,       622,
   76.1435,       624,
   76.1637,       606,
   76.1838,       623,
    76.204,       639,
   76.2242,       599,
   76.2443,       649,
   76.2645,       633,
   76.2847,       640,
   76.3048,       582,
    76.325,       627,
   76.3452,       622,
   76.3653,       652,
   76.3855,       612,
   76.4057,       587,
   76.4258,       620,
    76.446,       638,
   76.4662,       652,
   76.4864,       676,
   76.5065,       632,
   76.5267,       639,
   76.5469,       662,
    76.567,       613,
   76.5872,       630,
   76.6074,       631,
   76.6275,       637,
   76.6477,       675,
   76.6679,       601,
    76.688,       620,
   76.7082,       660,
   76.7284,       630,
   76.7485,       634,
   76.7687,       615,
   76.7889,       598,
    76.809,       591,
   76.8292,       614,
   76.8494,       617,
   76.8696,       666,
   76.8897,       551,
   76.9099,       627,
   76.9301,       594,
   76.9502,       601,
   76.9704,       640,
   76.9906,       619,
   77.0107,       596,
   77.0309,       585,
   77.0511,       612,
   77.0712,       627,
   77.0914,       633,
   77.1116,       628,
   77.1317,       629,
   77.1519,       630,
   77.1721,       662,
   77.1923,       650,
   77.2124,       626,
   77.2326,       641,
   77.2528,       632,
   77.2729,       618,
   77.2931,       637,
   77.3133,       611,
   77.3334,       604,
   77.3536,       587,
   77.3738,       609,
   77.3939,       601,
   77.4141,       606,
   77.4343,       629,
   77.4544,       657,
   77.4746,       613,
   77.4948,       627,
   77.5149,       677,
   77.5351,       567,
   77.5553,       619,
   77.5755,       621,
   77.5956,       667,
   77.6158,       632,
    77.636,       606,
   77.6561,       558,
   77.6763,       589,
   77.6965,       653,
   77.7166,       666,
   77.7368,       591,
    77.757,       623,
   77.7771,       630,
   77.7973,       632,
   77.8175,       597,
   77.8376,       641,
   77.8578,       587,
    77.878,       636,
   77.8981,       612,
   77.9183,       618,
   77.9385,       585,
   77.9587,       596,
   77.9788,       619,
    77.999,       581,
