;RAW4.00
[RawHeader]
Date=11/26/2025
EstimatedTotalTime=426.6
FurtherDQLReading=0
HardwareIndicator=65519
MeasuredTotalTime=4.29378
MeasurementFlag=1
NumberOfMeasuredRanges=1
NumberOfRanges=1
Time=02:00:21

[VarInfo]
Type=USER
Flags=0
Value=Lab Manager

[VarInfo]
Type=SAMPLEID
Flags=0
Value=Commander Sample ID

[VarInfo]
Type=COMMENT
Flags=0
Value=

[VarInfo]
Type=UTF
Flags=0
Value=

[VarInfo]
Type=CREATOR
Flags=0
Value=V5Converter

[VarInfo]
Type=CREATOR_VERSION
Flags=0
Value=4.4.16.0

[HardwareConfiguration]
AbsorptionFactor=9999
ActivateAbsorber=0
Alpha1=1.5406
Alpha2=1.54439
AlphaAverage=1.54184
AlphaRatio=0.5
Analyzer=0
Anode=Cu
AntiScatteringSlit=9999
BeamOpticsFlags=0
Beta=1.39222
BetaRelativeIntensity=0
DeactivateAbsorber=0
DetectorSlit=9999
DivergenceSlit=9999
GoniometerControl=0
GoniometerDiameter=282
GoniometerModel=256
GoniometerStage=7
Monochromator=0
NearSampleSlit=9999
PrimarySollerSlit=9999
SampleChanger=0
SecondSollerSlit=9999
SynchronousAxis=0
ThinFilmAttachment=9999
WaveUnit=A

[RangeHeader]
ActuallyUsedLambda=1.54184
AdditionalDetectorMask=257
DataRecordLength=4
DelayTime=0
DisplayPlaneNumber=0
EstimatedScanTime=427
ExtraParametersMask=0
GeneratorCurrent=10
GeneratorVoltage=30
Increment=0.0201685
Increment3=0
NumberOfCompletedData=1885
NumberOfCounts=1
NumberOfDetectors=0
NumberOfDrives=3
NumberOfEncoderDrives=0
NumberOfMeasuredData=1885
NumberOfVaryingParameters=0
RangeStartTime=0
RotationSpeed=0
ScanMode=1
ScanType=Locked Coupled
SimulatedMeasConditions=0
SlitChangerIn=0
SmootingWidth=0
Start=40.0015
Steps=1885
SynchronousRotation=0
Time=33

[VarInfo]
Type=PSD_DISCRIM
Flags=0
Value=0.11;0.5

[VarInfo]
Type=OPTICS_V5
Flags=0
Value=H4sIAAAAAAAEAO1d63KjOhJ+Fda/zqmtBIPtXKaITzm2J+OaOHbFTnKmtrZcBORYZzC4AOey//d99hl2X2x1QViIS8C3JBN+TCaodWm6+2vUUkfS/nieW9IjcD3o2GcV5bBakYBtOCa0H84qS396oBxV/mhqF44NnTnwgdt25gvHBrbf0X1dQq1t78uzB88qM99ffJHlp6enw6faoeM+yGq1qsh/9i9HxgzM9QNoe75uG6AStjJfb1WRbqEH7y1wpc/BWWXFR0joAM9w4cInL/Bj4UHLsSW+3oXrLBc9NBZ6t3Pgojcb3P8FDH+o+7OzitwBj9AAMt+CrxUfl1Lblu55QRehTORzoM8XqLDt2L4ObeBy/coBc6yHluEvdYtxoR6o1ePT02O5h8TkLue4tzhrTW2EZGjqqBswQr3oFvyXjl+9OdUtD2hyGln7c259hcAyrwHqHhq4EDFpA/KbJ8lNjfKD1ToCFipvdm00JDA1OUbR6Btwou9Ab2HpL824AjQ5tXK8m+bF4OrHhPzodEft64TGrBVWDOsoPhpP1bBWhrxWvISy1r0hIUP+4r8skMLHrm78xG8sGODQhXPdfSHkZBMMakgD9GxISBvSeHkPOIFIQeOidilHx44baRI9r5mSRmyEDSxUYBJZ3blu/xy4JnCvAfYzAL0wsdX3b8s5NVnMwIfj6+8T9KPV/l7IxHm5Jhp5z0OvBh9BE+kGCS98DAk920dCZMIVSikeHA9SJulgmhwp1bAq2ZMXfZT4B2LSAxc+QFu3ogSlwl6OWi7Ssb/0moPwnSLFGmsYPPedJdIj0qJQrgWE0MJ5JCOdEXICmjFtjmnJUA7J0tRxpRHQLUBtYA3AytxYcejGiMm4JZa46kmmLG0LrhEWBa3xcus++8A2MZDfDYZpCWdMkQKtj5nwHfcltGVFk+OFGseMJxH2qHoYWND7cnJosmJN5ku1uCnh1+H65qyTKx3Y545jAR1NEG5s6BPpdiDSG56bXcI59IlYwiKvWdVk7knrgKm+tPxb3VoCboigVyQ96CPXTshnFewlKri/oQta5l9LD8GnYEuZYx67mbHTJoqe6ZblPK0cjVCOarZnwPgJzFUVVqC1ESPOHKsWvx33pNH5Zl7erhEyxkg2xVq1lr7TdoHug6HrLIDrvzAWEyiR9/eIRfdMhLKr5fweuE21rslCEdaQRS08UPF//xMyUSUc9B0TNG8Quqbos4xMnTwz90Y+PzEHluy7tuWt5HgP/ND5vNXOHBXjLvaN2aNbYuh5A79Evm3IJvErCL6JJ23LP418rD3OPSHRTOHDEjnla/gw85sIdabECnU0BoKwUKWYS+vrz5fAfvBnTbXRwKJhj2nOjrJISkNktZevObqMVm/q5DL4SnFwGS02cm5pFninPwKqkpa1mOmKYIUieVuWOJh2nCVqyWzxf//ehzWm2Nxw9uJBQ7dIeQJnTA/KYaNePXrNFtfo7ca2MPfItOjcf/WMZelYS+paugfVBtErK9H60Ibz5bx5oBwenx4fndaUWv3kSK0pjePu32vVE4S4oAZGIvklvWZQ4W0Rs4b0UpC0Rk/7QJiajTD10yOsXjvdJsRYdyXGNhLfFkDGuto1yh6Bqz+IoV6M/ulxppzUt4kz1l2Js43EtwWcsa52jLNz4OupIMPET46w2qmqqttD2Kq7EmEbiW9jhK262jHCrvGaRirECHVXGHuvCFutth02NsJWrKMSVWsKbh08xTrZCZK+OsbSG7gQ2D5ZHRSgJJK3tspG1g4H057tH9XfH6CibEVXr/OjKbkXhfRCBYDfqOeDOWLs0nmABl3VvJn0rm5bl73OpP2tN9TkFYkJfAye/WbPftQtiMQzg4uVjCJaIvW07+CFjI1lEf6uyTEWsnm67F2lsnIJbSARW0kbWtlk6OEgY+yhA20/e3B1k8GZLoaD0auqCHeKD6S58wgk35HmwJjpNrYKCTmTxd/SeKxl8/ienF2WXefzdFk9bOTm6N5Lz546UqiqhAVciZbr3FOQY3BWIVUkVBrdJr+ZtC6H31rRcrGRhEeyyEjkXXKxo0bYURPZUVPYUbPYUQuzEywL8PxEyoQBQloib5PW7UUWe0HrokySmCrg8D78PeybkkWGzrvjVjIvuH4+FiIbUQEDqBXeyxN46LJSkY3uZbffvRqnSMV2TCAFbaXVSDlkQmfBvNq4EkHsASVZZdetcW+QpTTSOp+8YlOLgL9pYnk4ToQicvl10J4MrpMZJONJkeZyfMe6Ed+xvgA2skTfcYU8TFacvPmcsQFLZ8dr7r82tXQiP3O7dSw/voYXlO4q5vl5u6WEjcypLxqFfRNqVSHyCL4FKaFHctihVBMCjFp1f7FErbF+MBEXRsEvZLo55TW19tJ1sT+LmlpQuitTm7f2YWpolHD6sQ1TaySFsh/E0uKy2LulDZ0nkgHOmxQp25WV3aUEnW+xcHMnRJr5lluqhymm+EkWW+4491hde7Ul3ssWbV9+7YtfJA0UTQyNGXBfyVbbPA8ud74bklUw60j9YgWfilQ/I4dzraYmBmuZ2QhiKJW9qxqLdLI3h6IxR/YytzAXT1vD42MIIXVJnC4nR8cylyaJ7OZRhxZeJcCPHu2eWH2ZQFkmUJYJlGUCZZlA+fE2xcsEyvezJV4mUP6aCCsTKN8TxsoEyl8VZ2UC5XvCWZlA+ashrEygfE8IKxMoywTKMoGyTKAsEyjLBMoygbJMoCwTKMsEyjKBskygLBMoywTKMoGyTKAsEyjLBMoygbJMoHzr+KNMoCwTKD9tAiXLkUS/iumT7KzT+Cmg4tm7GScqd+cL/4UkG4arGcVOT+72h4PRhP4scnoyGTg0xcTzk2U+BzLzcGMl7XBjde+HGw8WbefceR5MR45lATfhiGNKyDjkmKsg/WbotmTQQ8ElNJZEifQE7N/XgX9k+LhXSSBnuYaE6hunwkb7FPSZfOxxRGTIPPKL8PePe2KymphYK0bAR+scevtxXAin6Q2diJrmRGpv50S+wmdgEkNlcw/RmVjQz3IliCz1U2CAaRv4kdXICV5EJGb6ELHy5h6E61FQZYr/YA2o98gntQ/sOmq5XMfxeudlE7OmVzSsTJpYMhZe0hcRy1SR/jGf/zPDjH/DR/7fA2QfErQ9hAVgol98R9I5hWWaMq5mhBds4KeJUp0oaQYcIb5mwIVtN52ZmPP5qH/5US30lx930PRnYm4HLtvZktP8/WxBxzgL44DNsuvjPeVdZqh+7nWGuODWWWeI97KTtI5vABumgB1a+LnBszXslNBZz+i3gpzt3wSirjOzGenzhQXuZgBYY/QC/KUgIkkjH65UJ0ChmfamMj+F+lCxGJtFbxiJ1dIisfpGkRjhMR6HvT9h3thLD5hkeHHgLInKwm1g17oJl16CldWVYB+fXrg3mE494KdZfesZevz3Iay2B1ceYybnbh1ywVU1LSlVPTypn6qNRkNN8LvHjcOTRv24dqQqvK8VhNAM7mETbitc+w7DEUCRgJl9i2FYh7v9roNCXwNnMmzhLkORh4SYKLFGsfsMwz42ifVFRj70nYaF9FrM/4zwzYaj4jcbRuW787sNw+F2cbvhyRss3uHlOks3wMyxzMQtgMsX+xm8pBxzcfnj6s/ujy654bCjSsOZ7olX4OYEsRyOEwezQMpa3mDWKOO8X3k4Wj2jProvYAvX6KYzLmrzl7v28CTPUlxNiU9Yi8wL0ecUu0XdWrmWfniNJk2pxn6HJHazGl4xZ9PpjyfkXwFHw4ba6R6gstmscZebgP09bgIKCIswkLYN2N/zNmAmj6JSs3YC+59rJ1Cp53Ii1c+wFVhGSkUjpbRAqXF4dHrSUJRqPWmBqqEcHldP68dqfQeB0sontAHGieA9hcKI4+SmzLSadMAw70kjnLfkkW8dVkPLMIDnOS4E3hoRE+Mi7j2jlLwRUvyl1/ekrIcPHRqtqcpiLudicNWekB9FHA7lZ+eh0Ri4qHQnkdHp3mdFwxkkShPAfO0EGXBRYgTUqKlErdE1Wb0CGJXZGHSdNqGDKCsJ1TJnP6vqMuJUZpxuDuAUxgVFpsREEgUYMFu+rxszPNBZ5WDPRwluc5pzmitr4SQ+y+l5TBQhKMMCjfMcZLfIWj48ALPjYkzSv8ZE3eHvWs9sIu2S3oNHTCEVRwtgwGnwt6KsUpyC4BLvvcgEK46DYs5u+K03mpAfRZxdFKHbnGBVi0yvQisOP5lEYfRDEPwf22IqXU7pckqXI7qcECvsd+8VLsZPznhGTjB6jZVIzZz8ZA+dc9yig6ZEJvFifFQxXo8YAd9H0PIkfi6GHAXNPKxILbzB7vVR6AbplI5NtLGOuVT/5i2e1Rn4EFu+VFtBkewhB6uqmiyUa3yqI/WAkWUTj/6JxSqYYK6D6Pv/u9RXv2COAAA=

[PSD]
ActualTwoTheta=9999
FirstUsedChannel=0
FixedPSD=0
PSDOpening=4.99171
PSDType=5

[Drive]
DriveFlags=1
DriveName=2Theta
DriveNumber=2
DriveOffset=0
OffsetIndex=0
OscillationAmplitude=0
OscillationSpeed=0
StartPosition=40.0015

[Drive]
DriveFlags=1
DriveName=Theta
DriveNumber=1
DriveOffset=0
OffsetIndex=0
OscillationAmplitude=0
OscillationSpeed=0
StartPosition=20.0007

[Drive]
DriveFlags=1
DriveName=Phi
DriveNumber=3
DriveOffset=0
OffsetIndex=0
OscillationAmplitude=0
OscillationSpeed=0
StartPosition=0

[Data]
     Angle,       PSD,
   40.0015,       621,
   40.0217,       635,
   40.0418,       638,
    40.062,       677,
   40.0822,       601,
   40.1023,       634,
   40.1225,       612,
   40.1427,       602,
   40.1628,       630,
    40.183,       618,
   40.2032,       619,
   40.2233,       641,
   40.2435,       629,
   40.2637,       636,
   40.2838,       623,
    40.304,       663,
   40.3242,       688,
   40.3444,       630,
   40.3645,       601,
   40.3847,       594,
   40.4049,       641,
    40.425,       615,
   40.4452,       658,
   40.4654,       603,
   40.4855,       570,
   40.5057,       659,
   40.5259,       635,
    40.546,       626,
   40.5662,       613,
   40.5864,       614,
   40.6065,       623,
   40.6267,       661,
   40.6469,       633,
   40.6671,       645,
   40.6872,       635,
   40.7074,       638,
   40.7276,       612,
   40.7477,       623,
   40.7679,       639,
   40.7881,       643,
   40.8082,       629,
   40.8284,       654,
   40.8486,       624,
   40.8687,       700,
   40.8889,       645,
   40.9091,       682,
   40.9292,       667,
   40.9494,       648,
   40.9696,       722,
   40.9897,       628,
   41.0099,       657,
   41.0301,       674,
   41.0503,       675,
   41.0704,       712,
   41.0906,       728,
   41.1108,       649,
   41.1309,       606,
   41.1511,       655,
   41.1713,       617,
   41.1914,       688,
   41.2116,       676,
   41.2318,       647,
   41.2519,       645,
   41.2721,       640,
   41.2923,       674,
   41.3124,       648,
   41.3326,       642,
   41.3528,       642,
   41.3729,       637,
   41.3931,       654,
   41.4133,       672,
   41.4335,       661,
   41.4536,       595,
   41.4738,       621,
    41.494,       699,
   41.5141,       683,
   41.5343,       666,
   41.5545,       714,
   41.5746,       686,
   41.5948,       671,
    41.615,       648,
   41.6351,       710,
   41.6553,       670,
   41.6755,       691,
   41.6956,       684,
   41.7158,       656,
    41.736,       639,
   41.7562,       680,
   41.7763,       677,
   41.7965,       659,
   41.8167,       708,
   41.8368,       703,
    41.857,       652,
   41.8772,       748,
   41.8973,       694,
   41.9175,       701,
   41.9377,       763,
   41.9578,       742,
    41.978,       748,
   41.9982,       776,
   42.0183,       721,
   42.0385,       809,
   42.0587,       786,
   42.0788,       820,
    42.099,       762,
   42.1192,       780,
   42.1394,       787,
   42.1595,       818,
   42.1797,       834,
   42.1999,       844,
     42.22,       835,
   42.2402,       785,
   42.2604,       819,
   42.2805,       815,
   42.3007,       860,
   42.3209,       793,
    42.341,       782,
   42.3612,       786,
   42.3814,       819,
   42.4015,       826,
   42.4217,       831,
   42.4419,       795,
    42.462,       839,
   42.4822,       861,
   42.5024,       861,
   42.5226,       871,
   42.5427,       867,
   42.5629,       845,
   42.5831,       881,
   42.6032,       892,
   42.6234,       908,
   42.6436,       900,
   42.6637,       899,
   42.6839,       960,
   42.7041,       888,
   42.7242,       920,
   42.7444,       976,
   42.7646,       958,
   42.7847,       986,
   42.8049,      1012,
   42.8251,      1015,
   42.8453,      1045,
   42.8654,      1099,
   42.8856,      1133,
   42.9058,      1166,
   42.9259,      1143,
   42.9461,      1196,
   42.9663,      1261,
   42.9864,      1302,
   43.0066,      1375,
   43.0268,      1368,
   43.0469,      1498,
   43.0671,      1519,
   43.0873,      1655,
   43.1074,      1716,
   43.1276,      1770,
   43.1478,      2001,
   43.1679,      2101,
   43.1881,      2373,
   43.2083,      2486,
   43.2285,      2756,
   43.2486,      3011,
   43.2688,      3477,
    43.289,      3834,
   43.3091,      4392,
   43.3293,      5043,
   43.3495,      5765,
   43.3696,      6823,
   43.3898,      7915,
     43.41,      9322,
   43.4301,     11022,
   43.4503,     13310,
   43.4705,     16134,
   43.4906,     18895,
   43.5108,     18853,
    43.531,     16910,
   43.5511,     15269,
   43.5713,     14612,
   43.5915,     14740,
   43.6117,     14133,
   43.6318,     12456,
    43.652,     10452,
   43.6722,      8577,
   43.6923,      7450,
   43.7125,      6392,
   43.7327,      5427,
   43.7528,      4880,
    43.773,      4332,
   43.7932,      3806,
   43.8133,      3404,
   43.8335,      3058,
   43.8537,      2700,
   43.8738,      2510,
    43.894,      2289,
   43.9142,      2176,
   43.9344,      1958,
   43.9545,      1917,
   43.9747,      1818,
   43.9949,      1627,
    44.015,      1596,
   44.0352,      1448,
   44.0554,      1503,
   44.0755,      1342,
   44.0957,      1347,
   44.1159,      1328,
    44.136,      1226,
   44.1562,      1230,
   44.1764,      1181,
   44.1965,      1116,
   44.2167,      1121,
   44.2369,      1174,
    44.257,      1122,
   44.2772,      1051,
   44.2974,      1016,
   44.3176,      1032,
   44.3377,       996,
   44.3579,       987,
   44.3781,      1018,
   44.3982,       956,
   44.4184,      1033,
   44.4386,       975,
   44.4587,       916,
   44.4789,       940,
   44.4991,       936,
   44.5192,       878,
   44.5394,       943,
   44.5596,       823,
   44.5797,       920,
   44.5999,       856,
   44.6201,       847,
   44.6402,       888,
   44.6604,       903,
   44.6806,       842,
   44.7008,       844,
   44.7209,       831,
   44.7411,       813,
   44.7613,       813,
   44.7814,       789,
   44.8016,       784,
   44.8218,       801,
   44.8419,       845,
   44.8621,       798,
   44.8823,       854,
   44.9024,       854,
   44.9226,       771,
   44.9428,       800,
   44.9629,       794,
   44.9831,       798,
   45.0033,       798,
   45.0235,       749,
   45.0436,       789,
   45.0638,       739,
    45.084,       779,
   45.1041,       784,
   45.1243,       748,
   45.1445,       772,
   45.1646,       804,
   45.1848,       749,
    45.205,       793,
   45.2251,       767,
   45.2453,       767,
   45.2655,       746,
   45.2856,       751,
   45.3058,       763,
    45.326,       787,
   45.3461,       712,
   45.3663,       719,
   45.3865,       738,
   45.4067,       746,
   45.4268,       763,
    45.447,       731,
   45.4672,       718,
   45.4873,       790,
   45.5075,       761,
   45.5277,       806,
   45.5478,       780,
    45.568,       734,
   45.5882,       749,
   45.6083,       747,
   45.6285,       741,
   45.6487,       752,
   45.6688,       764,
    45.689,       765,
   45.7092,       774,
   45.7294,       724,
   45.7495,       757,
   45.7697,       760,
   45.7899,       720,
     45.81,       708,
   45.8302,       768,
   45.8504,       702,
   45.8705,       744,
   45.8907,       695,
   45.9109,       736,
    45.931,       708,
   45.9512,       709,
   45.9714,       746,
   45.9915,       741,
   46.0117,       735,
   46.0319,       668,
    46.052,       738,
   46.0722,       711,
   46.0924,       762,
   46.1126,       709,
   46.1327,       710,
   46.1529,       740,
   46.1731,       664,
   46.1932,       748,
   46.2134,       739,
   46.2336,       705,
   46.2537,       726,
   46.2739,       716,
   46.2941,       693,
   46.3142,       670,
   46.3344,       711,
   46.3546,       706,
   46.3747,       741,
   46.3949,       689,
   46.4151,       730,
   46.4352,       698,
   46.4554,       712,
   46.4756,       690,
   46.4958,       737,
   46.5159,       734,
   46.5361,       745,
   46.5563,       718,
   46.5764,       729,
   46.5966,       689,
   46.6168,       694,
   46.6369,       713,
   46.6571,       688,
   46.6773,       691,
   46.6974,       702,
   46.7176,       703,
   46.7378,       710,
   46.7579,       730,
   46.7781,       742,
   46.7983,       694,
   46.8185,       712,
   46.8386,       649,
   46.8588,       683,
    46.879,       718,
   46.8991,       712,
   46.9193,       647,
   46.9395,       736,
   46.9596,       718,
   46.9798,       679,
        47,       693,
   47.0201,       688,
   47.0403,       733,
   47.0605,       721,
   47.0806,       727,
   47.1008,       688,
    47.121,       706,
   47.1411,       701,
   47.1613,       692,
   47.1815,       730,
   47.2017,       703,
   47.2218,       711,
    47.242,       643,
   47.2622,       701,
   47.2823,       695,
   47.3025,       720,
   47.3227,       661,
   47.3428,       669,
    47.363,       671,
   47.3832,       747,
   47.4033,       703,
   47.4235,       731,
   47.4437,       675,
   47.4638,       759,
    47.484,       693,
   47.5042,       667,
   47.5243,       705,
   47.5445,       724,
   47.5647,       673,
   47.5849,       699,
    47.605,       691,
   47.6252,       719,
   47.6454,       676,
   47.6655,       702,
   47.6857,       710,
   47.7059,       650,
    47.726,       660,
   47.7462,       719,
   47.7664,       731,
   47.7865,       709,
   47.8067,       710,
   47.8269,       740,
    47.847,       680,
   47.8672,       679,
   47.8874,       657,
   47.9076,       711,
   47.9277,       668,
   47.9479,       732,
   47.9681,       679,
   47.9882,       684,
   48.0084,       683,
   48.0286,       702,
   48.0487,       667,
   48.0689,       717,
   48.0891,       684,
   48.1092,       715,
   48.1294,       714,
   48.1496,       694,
   48.1697,       687,
   48.1899,       664,
   48.2101,       689,
   48.2302,       701,
   48.2504,       701,
   48.2706,       681,
   48.2908,       707,
   48.3109,       680,
   48.3311,       652,
   48.3513,       674,
   48.3714,       685,
   48.3916,       677,
   48.4118,       723,
   48.4319,       710,
   48.4521,       715,
   48.4723,       718,
   48.4924,       676,
   48.5126,       682,
   48.5328,       687,
   48.5529,       756,
   48.5731,       724,
   48.5933,       745,
   48.6134,       670,
   48.6336,       722,
   48.6538,       690,
    48.674,       709,
   48.6941,       710,
   48.7143,       731,
   48.7345,       704,
   48.7546,       709,
   48.7748,       712,
    48.795,       691,
   48.8151,       735,
   48.8353,       702,
   48.8555,       758,
   48.8756,       784,
   48.8958,       717,
    48.916,       705,
   48.9361,       698,
   48.9563,       760,
   48.9765,       748,
   48.9967,       727,
   49.0168,       743,
    49.037,       720,
   49.0572,       753,
   49.0773,       751,
   49.0975,       747,
   49.1177,       747,
   49.1378,       738,
    49.158,       763,
   49.1782,       752,
   49.1983,       754,
   49.2185,       810,
   49.2387,       787,
   49.2588,       788,
    49.279,       768,
   49.2992,       790,
   49.3193,       736,
   49.3395,       737,
   49.3597,       745,
   49.3799,       784,
      49.4,       793,
   49.4202,       757,
   49.4404,       802,
   49.4605,       788,
   49.4807,       775,
   49.5009,       773,
    49.521,       795,
   49.5412,       804,
   49.5614,       797,
   49.5815,       772,
   49.6017,       844,
   49.6219,       834,
    49.642,       849,
   49.6622,       839,
   49.6824,       875,
   49.7025,       887,
   49.7227,       870,
   49.7429,       868,
   49.7631,       879,
   49.7832,       868,
   49.8034,       941,
   49.8236,       906,
   49.8437,       912,
   49.8639,       923,
   49.8841,       957,
   49.9042,       986,
   49.9244,       941,
   49.9446,       988,
   49.9647,      1017,
   49.9849,      1022,
   50.0051,      1039,
   50.0252,      1112,
   50.0454,      1104,
   50.0656,      1121,
   50.0858,      1140,
   50.1059,      1225,
   50.1261,      1275,
   50.1463,      1357,
   50.1664,      1276,
   50.1866,      1427,
   50.2068,      1511,
   50.2269,      1565,
   50.2471,      1708,
   50.2673,      1720,
   50.2874,      1833,
   50.3076,      1887,
   50.3278,      1924,
   50.3479,      2147,
   50.3681,      2222,
   50.3883,      2331,
   50.4084,      2481,
   50.4286,      2667,
   50.4488,      2854,
    50.469,      2957,
   50.4891,      3126,
   50.5093,      3226,
   50.5295,      3423,
   50.5496,      3715,
   50.5698,      4073,
     50.59,      4394,
   50.6101,      4867,
   50.6303,      5096,
   50.6505,      4755,
   50.6706,      4327,
   50.6908,      4026,
    50.711,      3934,
   50.7311,      4073,
   50.7513,      3944,
   50.7715,      3812,
   50.7917,      3427,
   50.8118,      3131,
    50.832,      2903,
   50.8522,      2800,
   50.8723,      2651,
   50.8925,      2532,
   50.9127,      2204,
   50.9328,      2113,
    50.953,      2008,
   50.9732,      1915,
   50.9933,      1727,
   51.0135,      1733,
   51.0337,      1659,
   51.0538,      1516,
    51.074,      1490,
   51.0942,      1358,
   51.1143,      1313,
   51.1345,      1237,
   51.1547,      1248,
   51.1749,      1178,
    51.195,      1140,
   51.2152,      1067,
   51.2354,      1039,
   51.2555,      1096,
   51.2757,       968,
   51.2959,       985,
    51.316,       996,
   51.3362,       981,
   51.3564,       927,
   51.3765,       926,
   51.3967,       868,
   51.4169,       891,
    51.437,       812,
   51.4572,       798,
   51.4774,       836,
   51.4975,       796,
   51.5177,       824,
   51.5379,       814,
   51.5581,       801,
   51.5782,       779,
   51.5984,       794,
   51.6186,       780,
   51.6387,       733,
   51.6589,       794,
   51.6791,       778,
   51.6992,       773,
   51.7194,       714,
   51.7396,       729,
   51.7597,       736,
   51.7799,       727,
   51.8001,       719,
   51.8202,       795,
   51.8404,       749,
   51.8606,       713,
   51.8808,       728,
   51.9009,       691,
   51.9211,       683,
   51.9413,       720,
   51.9614,       710,
   51.9816,       740,
   52.0018,       717,
   52.0219,       712,
   52.0421,       683,
   52.0623,       701,
   52.0824,       700,
   52.1026,       721,
   52.1228,       704,
   52.1429,       710,
   52.1631,       697,
   52.1833,       672,
   52.2034,       682,
   52.2236,       737,
   52.2438,       695,
    52.264,       646,
   52.2841,       700,
   52.3043,       672,
   52.3245,       590,
   52.3446,       716,
   52.3648,       645,
    52.385,       655,
   52.4051,       649,
   52.4253,       700,
   52.4455,       687,
   52.4656,       670,
   52.4858,       735,
    52.506,       682,
   52.5261,       649,
   52.5463,       642,
   52.5665,       702,
   52.5866,       677,
   52.6068,       701,
    52.627,       741,
   52.6472,       640,
   52.6673,       685,
   52.6875,       700,
   52.7077,       640,
   52.7278,       698,
    52.748,       668,
   52.7682,       660,
   52.7883,       719,
   52.8085,       645,
   52.8287,       619,
   52.8488,       692,
    52.869,       656,
   52.8892,       674,
   52.9093,       665,
   52.9295,       653,
   52.9497,       650,
   52.9699,       652,
     52.99,       657,
   53.0102,       646,
   53.0304,       644,
   53.0505,       637,
   53.0707,       661,
   53.0909,       662,
    53.111,       695,
   53.1312,       634,
   53.1514,       627,
   53.1715,       655,
   53.1917,       641,
   53.2119,       683,
    53.232,       643,
   53.2522,       655,
   53.2724,       623,
   53.2925,       651,
   53.3127,       612,
   53.3329,       641,
   53.3531,       656,
   53.3732,       677,
   53.3934,       661,
   53.4136,       641,
   53.4337,       618,
   53.4539,       613,
   53.4741,       638,
   53.4942,       616,
   53.5144,       687,
   53.5346,       615,
   53.5547,       655,
   53.5749,       650,
   53.5951,       664,
   53.6152,       653,
   53.6354,       637,
   53.6556,       607,
   53.6757,       670,
   53.6959,       617,
   53.7161,       636,
   53.7363,       657,
   53.7564,       602,
   53.7766,       615,
   53.7968,       656,
   53.8169,       671,
   53.8371,       681,
   53.8573,       640,
   53.8774,       628,
   53.8976,       645,
   53.9178,       597,
   53.9379,       645,
   53.9581,       648,
   53.9783,       623,
   53.9984,       659,
   54.0186,       589,
   54.0388,       645,
    54.059,       679,
   54.0791,       642,
   54.0993,       629,
   54.1195,       642,
   54.1396,       659,
   54.1598,       631,
     54.18,       636,
   54.2001,       623,
   54.2203,       632,
   54.2405,       644,
   54.2606,       601,
   54.2808,       633,
    54.301,       630,
   54.3211,       631,
   54.3413,       624,
   54.3615,       632,
   54.3816,       629,
   54.4018,       685,
    54.422,       611,
   54.4422,       615,
   54.4623,       639,
   54.4825,       610,
   54.5027,       608,
   54.5228,       627,
    54.543,       637,
   54.5632,       693,
   54.5833,       629,
   54.6035,       624,
   54.6237,       594,
   54.6438,       614,
    54.664,       636,
   54.6842,       637,
   54.7043,       642,
   54.7245,       674,
   54.7447,       636,
   54.7648,       626,
    54.785,       618,
   54.8052,       636,
   54.8254,       617,
   54.8455,       629,
   54.8657,       602,
   54.8859,       598,
    54.906,       600,
   54.9262,       633,
   54.9464,       566,
   54.9665,       666,
   54.9867,       615,
   55.0069,       619,
    55.027,       629,
   55.0472,       618,
   55.0674,       622,
   55.0875,       662,
   55.1077,       618,
   55.1279,       659,
   55.1481,       619,
   55.1682,       622,
   55.1884,       611,
   55.2086,       617,
   55.2287,       625,
   55.2489,       627,
   55.2691,       619,
   55.2892,       612,
   55.3094,       676,
   55.3296,       630,
   55.3497,       608,
   55.3699,       666,
   55.3901,       654,
   55.4102,       627,
   55.4304,       640,
   55.4506,       595,
   55.4707,       586,
   55.4909,       598,
   55.5111,       600,
   55.5313,       636,
   55.5514,       584,
   55.5716,       653,
   55.5918,       589,
   55.6119,       629,
   55.6321,       614,
   55.6523,       625,
   55.6724,       647,
   55.6926,       627,
   55.7128,       584,
   55.7329,       577,
   55.7531,       608,
   55.7733,       680,
   55.7934,       611,
   55.8136,       593,
   55.8338,       623,
    55.854,       621,
   55.8741,       655,
   55.8943,       645,
   55.9145,       605,
   55.9346,       650,
   55.9548,       639,
    55.975,       641,
   55.9951,       602,
   56.0153,       604,
   56.0355,       624,
   56.0556,       579,
   56.0758,       620,
    56.096,       624,
   56.1161,       618,
   56.1363,       549,
   56.1565,       619,
   56.1766,       596,
   56.1968,       636,
    56.217,       604,
   56.2372,       631,
   56.2573,       652,
   56.2775,       644,
   56.2977,       653,
   56.3178,       614,
    56.338,       619,
   56.3582,       629,
   56.3783,       680,
   56.3985,       618,
   56.4187,       640,
   56.4388,       587,
    56.459,       584,
   56.4792,       621,
   56.4993,       609,
   56.5195,       607,
   56.5397,       600,
   56.5598,       548,
     56.58,       616,
   56.6002,       624,
   56.6204,       614,
   56.6405,       596,
   56.6607,       658,
   56.6809,       617,
    56.701,       610,
   56.7212,       608,
   56.7414,       640,
   56.7615,       660,
   56.7817,       610,
   56.8019,       605,
    56.822,       631,
   56.8422,       631,
   56.8624,       641,
   56.8825,       608,
   56.9027,       619,
   56.9229,       615,
   56.9431,       613,
   56.9632,       585,
   56.9834,       635,
   57.0036,       633,
   57.0237,       590,
   57.0439,       614,
   57.0641,       663,
   57.0842,       645,
   57.1044,       645,
   57.1246,       621,
   57.1447,       651,
   57.1649,       581,
   57.1851,       614,
   57.2052,       627,
   57.2254,       614,
   57.2456,       655,
   57.2657,       583,
   57.2859,       594,
   57.3061,       559,
   57.3263,       607,
   57.3464,       640,
   57.3666,       631,
   57.3868,       605,
   57.4069,       601,
   57.4271,       600,
   57.4473,       621,
   57.4674,       635,
   57.4876,       598,
   57.5078,       631,
   57.5279,       557,
   57.5481,       604,
   57.5683,       571,
   57.5884,       604,
   57.6086,       640,
   57.6288,       639,
   57.6489,       623,
   57.6691,       608,
   57.6893,       592,
   57.7095,       598,
   57.7296,       573,
   57.7498,       620,
     57.77,       642,
   57.7901,       630,
   57.8103,       641,
   57.8305,       583,
   57.8506,       575,
   57.8708,       612,
    57.891,       577,
   57.9111,       645,
   57.9313,       621,
   57.9515,       612,
   57.9716,       595,
   57.9918,       605,
    58.012,       587,
   58.0322,       615,
   58.0523,       652,
   58.0725,       603,
   58.0927,       599,
   58.1128,       622,
    58.133,       600,
   58.1532,       629,
   58.1733,       615,
   58.1935,       582,
   58.2137,       572,
   58.2338,       564,
    58.254,       598,
   58.2742,       623,
   58.2943,       599,
   58.3145,       620,
   58.3347,       601,
   58.3548,       599,
    58.375,       603,
   58.3952,       626,
   58.4154,       640,
   58.4355,       577,
   58.4557,       628,
   58.4759,       601,
    58.496,       577,
   58.5162,       616,
   58.5364,       588,
   58.5565,       603,
   58.5767,       642,
   58.5969,       597,
    58.617,       569,
   58.6372,       611,
   58.6574,       608,
   58.6775,       593,
   58.6977,       641,
   58.7179,       634,
    58.738,       556,
   58.7582,       627,
   58.7784,       592,
   58.7986,       603,
   58.8187,       586,
   58.8389,       626,
   58.8591,       587,
   58.8792,       590,
   58.8994,       598,
   58.9196,       583,
   58.9397,       588,
   58.9599,       601,
   58.9801,       602,
   59.0002,       605,
   59.0204,       600,
   59.0406,       606,
   59.0607,       605,
   59.0809,       616,
   59.1011,       603,
   59.1213,       580,
   59.1414,       635,
   59.1616,       584,
   59.1818,       581,
   59.2019,       582,
   59.2221,       605,
   59.2423,       626,
   59.2624,       606,
   59.2826,       616,
   59.3028,       565,
   59.3229,       589,
   59.3431,       651,
   59.3633,       619,
   59.3834,       620,
   59.4036,       606,
   59.4238,       586,
   59.4439,       612,
   59.4641,       600,
   59.4843,       631,
   59.5045,       613,
   59.5246,       576,
   59.5448,       577,
    59.565,       607,
   59.5851,       622,
   59.6053,       643,
   59.6255,       590,
   59.6456,       584,
   59.6658,       575,
    59.686,       615,
   59.7061,       641,
   59.7263,       593,
   59.7465,       586,
   59.7666,       577,
   59.7868,       619,
    59.807,       590,
   59.8271,       583,
   59.8473,       641,
   59.8675,       629,
   59.8877,       589,
   59.9078,       606,
    59.928,       595,
   59.9482,       585,
   59.9683,       601,
   59.9885,       604,
   60.0087,       649,
   60.0288,       596,
    60.049,       631,
   60.0692,       587,
   60.0893,       565,
   60.1095,       599,
   60.1297,       573,
   60.1498,       608,
     60.17,       582,
   60.1902,       581,
   60.2104,       611,
   60.2305,       631,
   60.2507,       579,
   60.2709,       592,
    60.291,       598,
   60.3112,       630,
   60.3314,       673,
   60.3515,       608,
   60.3717,       562,
   60.3919,       616,
    60.412,       625,
   60.4322,       613,
   60.4524,       557,
   60.4725,       594,
   60.4927,       588,
   60.5129,       572,
    60.533,       599,
   60.5532,       578,
   60.5734,       588,
   60.5936,       616,
   60.6137,       614,
   60.6339,       608,
   60.6541,       594,
   60.6742,       588,
   60.6944,       545,
   60.7146,       597,
   60.7347,       614,
   60.7549,       606,
   60.7751,       600,
   60.7952,       574,
   60.8154,       617,
   60.8356,       627,
   60.8557,       586,
   60.8759,       622,
   60.8961,       615,
   60.9163,       562,
   60.9364,       553,
   60.9566,       633,
   60.9768,       596,
   60.9969,       611,
   61.0171,       549,
   61.0373,       582,
   61.0574,       612,
   61.0776,       605,
   61.0978,       604,
   61.1179,       618,
   61.1381,       612,
   61.1583,       614,
   61.1784,       612,
   61.1986,       602,
   61.2188,       631,
   61.2389,       604,
   61.2591,       591,
   61.2793,       572,
   61.2995,       637,
   61.3196,       583,
   61.3398,       570,
     61.36,       608,
   61.3801,       647,
   61.4003,       589,
   61.4205,       580,
   61.4406,       625,
   61.4608,       570,
    61.481,       619,
   61.5011,       607,
   61.5213,       651,
   61.5415,       615,
   61.5616,       576,
   61.5818,       592,
    61.602,       621,
   61.6221,       599,
   61.6423,       638,
   61.6625,       617,
   61.6827,       596,
   61.7028,       601,
    61.723,       603,
   61.7432,       589,
   61.7633,       565,
   61.7835,       633,
   61.8037,       594,
   61.8238,       607,
    61.844,       601,
   61.8642,       606,
   61.8843,       600,
   61.9045,       569,
   61.9247,       616,
   61.9448,       600,
    61.965,       667,
   61.9852,       606,
   62.0054,       623,
   62.0255,       602,
   62.0457,       618,
   62.0659,       593,
    62.086,       579,
   62.1062,       574,
   62.1264,       646,
   62.1465,       597,
   62.1667,       583,
   62.1869,       570,
    62.207,       617,
   62.2272,       642,
   62.2474,       604,
   62.2675,       630,
   62.2877,       590,
   62.3079,       585,
    62.328,       597,
   62.3482,       565,
   62.3684,       594,
   62.3886,       611,
   62.4087,       572,
   62.4289,       598,
   62.4491,       610,
   62.4692,       573,
   62.4894,       573,
   62.5096,       580,
   62.5297,       548,
   62.5499,       610,
   62.5701,       612,
   62.5902,       589,
   62.6104,       644,
   62.6306,       579,
   62.6507,       584,
   62.6709,       614,
   62.6911,       585,
   62.7112,       547,
   62.7314,       617,
   62.7516,       597,
   62.7718,       588,
   62.7919,       629,
   62.8121,       605,
   62.8323,       577,
   62.8524,       596,
   62.8726,       585,
   62.8928,       564,
   62.9129,       576,
   62.9331,       589,
   62.9533,       597,
   62.9734,       597,
   62.9936,       598,
   63.0138,       540,
   63.0339,       596,
   63.0541,       611,
   63.0743,       604,
   63.0945,       585,
   63.1146,       613,
   63.1348,       583,
    63.155,       586,
   63.1751,       585,
   63.1953,       598,
   63.2155,       595,
   63.2356,       577,
   63.2558,       566,
    63.276,       607,
   63.2961,       615,
   63.3163,       630,
   63.3365,       629,
   63.3566,       602,
   63.3768,       558,
    63.397,       618,
   63.4171,       592,
   63.4373,       578,
   63.4575,       589,
   63.4777,       596,
   63.4978,       583,
    63.518,       624,
   63.5382,       613,
   63.5583,       586,
   63.5785,       600,
   63.5987,       603,
   63.6188,       600,
    63.639,       608,
   63.6592,       574,
   63.6793,       569,
   63.6995,       598,
   63.7197,       594,
   63.7398,       612,
     63.76,       549,
   63.7802,       582,
   63.8003,       608,
   63.8205,       596,
   63.8407,       582,
   63.8609,       582,
    63.881,       597,
   63.9012,       600,
   63.9214,       553,
   63.9415,       571,
   63.9617,       610,
   63.9819,       585,
    64.002,       599,
   64.0222,       619,
   64.0424,       612,
   64.0625,       580,
   64.0827,       601,
   64.1029,       609,
    64.123,       602,
   64.1432,       594,
   64.1634,       600,
   64.1836,       579,
   64.2037,       557,
   64.2239,       592,
   64.2441,       598,
   64.2642,       554,
   64.2844,       607,
   64.3046,       607,
   64.3247,       555,
   64.3449,       565,
   64.3651,       573,
   64.3852,       621,
   64.4054,       600,
   64.4256,       612,
   64.4457,       583,
   64.4659,       616,
   64.4861,       583,
   64.5062,       612,
   64.5264,       611,
   64.5466,       565,
   64.5668,       622,
   64.5869,       613,
   64.6071,       582,
   64.6273,       593,
   64.6474,       554,
   64.6676,       563,
   64.6878,       610,
   64.7079,       606,
   64.7281,       609,
   64.7483,       593,
   64.7684,       588,
   64.7886,       537,
   64.8088,       570,
   64.8289,       580,
   64.8491,       618,
   64.8693,       554,
   64.8894,       599,
   64.9096,       613,
   64.9298,       585,
     64.95,       546,
   64.9701,       614,
   64.9903,       614,
   65.0105,       604,
   65.0306,       556,
   65.0508,       635,
    65.071,       612,
   65.0911,       594,
   65.1113,       525,
   65.1315,       594,
   65.1516,       563,
   65.1718,       573,
    65.192,       567,
   65.2121,       594,
   65.2323,       546,
   65.2525,       588,
   65.2727,       581,
   65.2928,       628,
    65.313,       586,
   65.3332,       647,
   65.3533,       558,
   65.3735,       611,
   65.3937,       550,
   65.4138,       560,
    65.434,       592,
   65.4542,       596,
   65.4743,       630,
   65.4945,       576,
   65.5147,       599,
   65.5348,       632,
    65.555,       590,
   65.5752,       595,
   65.5953,       611,
   65.6155,       622,
   65.6357,       586,
   65.6559,       597,
    65.676,       560,
   65.6962,       569,
   65.7164,       612,
   65.7365,       599,
   65.7567,       576,
   65.7769,       590,
    65.797,       622,
   65.8172,       598,
   65.8374,       592,
   65.8575,       616,
   65.8777,       625,
   65.8979,       583,
    65.918,       612,
   65.9382,       578,
   65.9584,       596,
   65.9786,       570,
   65.9987,       640,
   66.0189,       617,
   66.0391,       589,
   66.0592,       597,
   66.0794,       605,
   66.0996,       569,
   66.1197,       591,
   66.1399,       591,
   66.1601,       561,
   66.1802,       594,
   66.2004,       557,
   66.2206,       599,
   66.2407,       577,
   66.2609,       559,
   66.2811,       607,
   66.3012,       628,
   66.3214,       592,
   66.3416,       571,
   66.3618,       590,
   66.3819,       606,
   66.4021,       570,
   66.4223,       581,
   66.4424,       583,
   66.4626,       599,
   66.4828,       577,
   66.5029,       567,
   66.5231,       576,
   66.5433,       613,
   66.5634,       591,
   66.5836,       575,
   66.6038,       630,
   66.6239,       563,
   66.6441,       579,
   66.6643,       597,
   66.6844,       563,
   66.7046,       564,
   66.7248,       562,
    66.745,       573,
   66.7651,       632,
   66.7853,       614,
   66.8055,       583,
   66.8256,       573,
   66.8458,       587,
    66.866,       568,
   66.8861,       561,
   66.9063,       598,
   66.9265,       590,
   66.9466,       628,
   66.9668,       590,
    66.987,       556,
   67.0071,       583,
   67.0273,       563,
   67.0475,       562,
   67.0677,       592,
   67.0878,       583,
    67.108,       580,
   67.1282,       625,
   67.1483,       567,
   67.1685,       607,
   67.1887,       587,
   67.2088,       604,
    67.229,       573,
   67.2492,       581,
   67.2693,       647,
   67.2895,       579,
   67.3097,       597,
   67.3298,       626,
     67.35,       608,
   67.3702,       575,
   67.3903,       577,
   67.4105,       591,
   67.4307,       589,
   67.4509,       587,
    67.471,       573,
   67.4912,       610,
   67.5114,       586,
   67.5315,       566,
   67.5517,       596,
   67.5719,       610,
    67.592,       563,
   67.6122,       608,
   67.6324,       625,
   67.6525,       583,
   67.6727,       613,
   67.6929,       593,
    67.713,       547,
   67.7332,       581,
   67.7534,       595,
   67.7735,       576,
   67.7937,       587,
   67.8139,       621,
   67.8341,       593,
   67.8542,       582,
   67.8744,       567,
   67.8946,       593,
   67.9147,       582,
   67.9349,       547,
   67.9551,       599,
   67.9752,       583,
   67.9954,       589,
   68.0156,       594,
   68.0357,       546,
   68.0559,       642,
   68.0761,       590,
   68.0962,       580,
   68.1164,       548,
   68.1366,       600,
   68.1568,       589,
   68.1769,       611,
   68.1971,       600,
   68.2173,       583,
   68.2374,       548,
   68.2576,       546,
   68.2778,       568,
   68.2979,       615,
   68.3181,       561,
   68.3383,       569,
   68.3584,       621,
   68.3786,       562,
   68.3988,       608,
   68.4189,       597,
   68.4391,       591,
   68.4593,       566,
   68.4794,       588,
   68.4996,       550,
   68.5198,       613,
     68.54,       592,
   68.5601,       584,
   68.5803,       579,
   68.6005,       569,
   68.6206,       611,
   68.6408,       583,
    68.661,       568,
   68.6811,       595,
   68.7013,       562,
   68.7215,       574,
   68.7416,       567,
   68.7618,       606,
    68.782,       590,
   68.8021,       546,
   68.8223,       591,
   68.8425,       602,
   68.8626,       547,
   68.8828,       582,
    68.903,       591,
   68.9232,       581,
   68.9433,       582,
   68.9635,       570,
   68.9837,       597,
   69.0038,       583,
    69.024,       586,
   69.0442,       610,
   69.0643,       540,
   69.0845,       606,
   69.1047,       588,
   69.1248,       606,
    69.145,       583,
   69.1652,       614,
   69.1853,       581,
   69.2055,       572,
   69.2257,       631,
   69.2459,       592,
    69.266,       576,
   69.2862,       595,
   69.3064,       597,
   69.3265,       612,
   69.3467,       588,
   69.3669,       611,
    69.387,       612,
   69.4072,       558,
   69.4274,       613,
   69.4475,       562,
   69.4677,       570,
   69.4879,       563,
    69.508,       642,
   69.5282,       572,
   69.5484,       592,
   69.5685,       632,
   69.5887,       613,
   69.6089,       594,
   69.6291,       572,
   69.6492,       577,
   69.6694,       573,
   69.6896,       630,
   69.7097,       607,
   69.7299,       598,
   69.7501,       575,
   69.7702,       579,
   69.7904,       567,
   69.8106,       611,
   69.8307,       586,
   69.8509,       580,
   69.8711,       558,
   69.8912,       595,
   69.9114,       604,
   69.9316,       628,
   69.9517,       594,
   69.9719,       601,
   69.9921,       607,
   70.0123,       580,
   70.0324,       600,
   70.0526,       616,
   70.0728,       589,
   70.0929,       571,
   70.1131,       561,
   70.1333,       600,
   70.1534,       582,
   70.1736,       564,
   70.1938,       548,
   70.2139,       583,
   70.2341,       553,
   70.2543,       603,
   70.2744,       607,
   70.2946,       571,
   70.3148,       582,
    70.335,       589,
   70.3551,       575,
   70.3753,       643,
   70.3955,       608,
   70.4156,       574,
   70.4358,       576,
    70.456,       608,
   70.4761,       627,
   70.4963,       619,
   70.5165,       606,
   70.5366,       561,
   70.5568,       630,
    70.577,       579,
   70.5971,       583,
   70.6173,       584,
   70.6375,       593,
   70.6576,       594,
   70.6778,       556,
    70.698,       590,
   70.7182,       562,
   70.7383,       561,
   70.7585,       590,
   70.7787,       604,
   70.7988,       597,
    70.819,       616,
   70.8392,       605,
   70.8593,       587,
   70.8795,       618,
   70.8997,       591,
   70.9198,       602,
     70.94,       573,
   70.9602,       583,
   70.9803,       593,
   71.0005,       586,
   71.0207,       586,
   71.0409,       578,
    71.061,       626,
   71.0812,       605,
   71.1014,       592,
   71.1215,       564,
   71.1417,       632,
   71.1619,       540,
    71.182,       554,
   71.2022,       576,
   71.2224,       624,
   71.2425,       629,
   71.2627,       561,
   71.2829,       603,
    71.303,       628,
   71.3232,       597,
   71.3434,       545,
   71.3635,       605,
   71.3837,       614,
   71.4039,       622,
   71.4241,       609,
   71.4442,       566,
   71.4644,       567,
   71.4846,       587,
   71.5047,       622,
   71.5249,       589,
   71.5451,       636,
   71.5652,       625,
   71.5854,       590,
   71.6056,       559,
   71.6257,       582,
   71.6459,       614,
   71.6661,       627,
   71.6862,       586,
   71.7064,       595,
   71.7266,       588,
   71.7467,       590,
   71.7669,       605,
   71.7871,       591,
   71.8073,       588,
   71.8274,       619,
   71.8476,       612,
   71.8678,       601,
   71.8879,       581,
   71.9081,       563,
   71.9283,       562,
   71.9484,       590,
   71.9686,       610,
   71.9888,       605,
   72.0089,       609,
   72.0291,       580,
   72.0493,       618,
   72.0694,       580,
   72.0896,       588,
   72.1098,       590,
     72.13,       530,
   72.1501,       593,
   72.1703,       548,
   72.1905,       596,
   72.2106,       603,
   72.2308,       631,
    72.251,       609,
   72.2711,       652,
   72.2913,       592,
   72.3115,       600,
   72.3316,       611,
   72.3518,       597,
    72.372,       602,
   72.3921,       581,
   72.4123,       614,
   72.4325,       598,
   72.4526,       617,
   72.4728,       627,
    72.493,       563,
   72.5132,       593,
   72.5333,       608,
   72.5535,       637,
   72.5737,       635,
   72.5938,       596,
    72.614,       627,
   72.6342,       636,
   72.6543,       635,
   72.6745,       562,
   72.6947,       579,
   72.7148,       610,
    72.735,       622,
   72.7552,       589,
   72.7753,       645,
   72.7955,       600,
   72.8157,       640,
   72.8358,       609,
    72.856,       621,
   72.8762,       593,
   72.8964,       617,
   72.9165,       660,
   72.9367,       581,
   72.9569,       615,
    72.977,       620,
   72.9972,       610,
   73.0174,       636,
   73.0375,       639,
   73.0577,       610,
   73.0779,       613,
    73.098,       600,
   73.1182,       602,
   73.1384,       639,
   73.1585,       616,
   73.1787,       633,
   73.1989,       619,
   73.2191,       595,
   73.2392,       658,
   73.2594,       657,
   73.2796,       625,
   73.2997,       639,
   73.3199,       643,
   73.3401,       620,
   73.3602,       638,
   73.3804,       647,
   73.4006,       648,
   73.4207,       641,
   73.4409,       664,
   73.4611,       651,
   73.4812,       623,
   73.5014,       638,
   73.5216,       670,
   73.5417,       655,
   73.5619,       630,
   73.5821,       694,
   73.6023,       688,
   73.6224,       706,
   73.6426,       707,
   73.6628,       713,
   73.6829,       682,
   73.7031,       685,
   73.7233,       706,
   73.7434,       750,
   73.7636,       721,
   73.7838,       741,
   73.8039,       819,
   73.8241,       768,
   73.8443,       792,
   73.8644,       837,
   73.8846,       823,
   73.9048,       839,
   73.9249,       873,
   73.9451,       912,
   73.9653,       926,
   73.9855,       982,
   74.0056,       911,
   74.0258,      1011,
    74.046,      1075,
   74.0661,      1110,
   74.0863,      1062,
   74.1065,      1238,
   74.1266,      1241,
   74.1468,      1293,
    74.167,      1309,
   74.1871,      1396,
   74.2073,      1571,
   74.2275,      1863,
   74.2476,      2287,
   74.2678,      2590,
    74.288,      2580,
   74.3082,      2143,
   74.3283,      1896,
   74.3485,      1577,
   74.3687,      1554,
   74.3888,      1470,
    74.409,      1493,
   74.4292,      1496,
   74.4493,      1643,
   74.4695,      1760,
   74.4897,      1870,
   74.5098,      1688,
     74.53,      1471,
   74.5502,      1307,
   74.5703,      1207,
   74.5905,      1143,
   74.6107,      1079,
   74.6308,       979,
    74.651,       978,
   74.6712,       946,
   74.6914,       947,
   74.7115,       950,
   74.7317,       886,
   74.7519,       841,
    74.772,       821,
   74.7922,       791,
   74.8124,       769,
   74.8325,       739,
   74.8527,       766,
   74.8729,       743,
    74.893,       730,
   74.9132,       749,
   74.9334,       723,
   74.9535,       725,
   74.9737,       658,
   74.9939,       690,
    75.014,       652,
   75.0342,       755,
   75.0544,       683,
   75.0746,       622,
   75.0947,       686,
   75.1149,       648,
   75.1351,       669,
   75.1552,       651,
   75.1754,       665,
   75.1956,       636,
   75.2157,       642,
   75.2359,       616,
   75.2561,       670,
   75.2762,       622,
   75.2964,       585,
   75.3166,       592,
   75.3367,       595,
   75.3569,       632,
   75.3771,       632,
   75.3973,       647,
   75.4174,       608,
   75.4376,       593,
   75.4578,       654,
   75.4779,       623,
   75.4981,       615,
   75.5183,       579,
   75.5384,       598,
   75.5586,       585,
   75.5788,       623,
   75.5989,       621,
   75.6191,       623,
   75.6393,       617,
   75.6594,       640,
   75.6796,       653,
   75.6998,       652,
   75.7199,       627,
   75.7401,       607,
   75.7603,       625,
   75.7805,       627,
   75.8006,       625,
   75.8208,       602,
    75.841,       615,
   75.8611,       619,
   75.8813,       600,
   75.9015,       589,
   75.9216,       635,
   75.9418,       633,
    75.962,       639,
   75.9821,       606,
   76.0023,       592,
   76.0225,       621,
   76.0426,       611,
   76.0628,       591,
    76.083,       626,
   76.1032,       570,
   76.1233,       607,
   76.1435,       595,
   76.1637,       631,
   76.1838,       623,
    76.204,       580,
   76.2242,       604,
   76.2443,       550,
   76.2645,       574,
   76.2847,       637,
   76.3048,       594,
    76.325,       622,
   76.3452,       584,
   76.3653,       575,
   76.3855,       589,
   76.4057,       589,
   76.4258,       609,
    76.446,       579,
   76.4662,       606,
   76.4864,       582,
   76.5065,       616,
   76.5267,       642,
   76.5469,       583,
    76.567,       614,
   76.5872,       594,
   76.6074,       570,
   76.6275,       593,
   76.6477,       579,
   76.6679,       597,
    76.688,       626,
   76.7082,       634,
   76.7284,       589,
   76.7485,       627,
   76.7687,       540,
   76.7889,       614,
    76.809,       622,
   76.8292,       601,
   76.8494,       581,
   76.8696,       580,
   76.8897,       599,
   76.9099,       608,
   76.9301,       596,
   76.9502,       615,
   76.9704,       619,
   76.9906,       614,
   77.0107,       574,
   77.0309,       591,
   77.0511,       567,
   77.0712,       625,
   77.0914,       601,
   77.1116,       591,
   77.1317,       594,
   77.1519,       564,
   77.1721,       549,
   77.1923,       587,
   77.2124,       586,
   77.2326,       643,
   77.2528,       599,
   77.2729,       571,
   77.2931,       566,
   77.3133,       587,
   77.3334,       605,
   77.3536,       587,
   77.3738,       597,
   77.3939,       566,
   77.4141,       535,
   77.4343,       613,
   77.4544,       567,
   77.4746,       596,
   77.4948,       607,
   77.5149,       580,
   77.5351,       588,
   77.5553,       625,
   77.5755,       592,
   77.5956,       594,
   77.6158,       568,
    77.636,       559,
   77.6561,       596,
   77.6763,       580,
   77.6965,       569,
   77.7166,       567,
   77.7368,       614,
    77.757,       601,
   77.7771,       577,
   77.7973,       571,
   77.8175,       621,
   77.8376,       593,
   77.8578,       578,
    77.878,       584,
   77.8981,       579,
   77.9183,       574,
   77.9385,       601,
   77.9587,       584,
   77.9788,       628,
    77.999,       605,
