;RAW4.00
[RawHeader]
Date=11/26/2025
EstimatedTotalTime=426.6
FurtherDQLReading=0
HardwareIndicator=65519
MeasuredTotalTime=4.29471
MeasurementFlag=1
NumberOfMeasuredRanges=1
NumberOfRanges=1
Time=10:30:26

[VarInfo]
Type=USER
Flags=0
Value=Lab Manager

[VarInfo]
Type=SAMPLEID
Flags=0
Value=Commander Sample ID

[VarInfo]
Type=COMMENT
Flags=0
Value=

[VarInfo]
Type=UTF
Flags=0
Value=

[VarInfo]
Type=CREATOR
Flags=0
Value=V5Converter

[VarInfo]
Type=CREATOR_VERSION
Flags=0
Value=4.4.16.0

[HardwareConfiguration]
AbsorptionFactor=9999
ActivateAbsorber=0
Alpha1=1.5406
Alpha2=1.54439
AlphaAverage=1.54184
AlphaRatio=0.5
Analyzer=0
Anode=Cu
AntiScatteringSlit=9999
BeamOpticsFlags=0
Beta=1.39222
BetaRelativeIntensity=0
DeactivateAbsorber=0
DetectorSlit=9999
DivergenceSlit=9999
GoniometerControl=0
GoniometerDiameter=282
GoniometerModel=256
GoniometerStage=7
Monochromator=0
NearSampleSlit=9999
PrimarySollerSlit=9999
SampleChanger=0
SecondSollerSlit=9999
SynchronousAxis=0
ThinFilmAttachment=9999
WaveUnit=A

[RangeHeader]
ActuallyUsedLambda=1.54184
AdditionalDetectorMask=257
DataRecordLength=4
DelayTime=0
DisplayPlaneNumber=0
EstimatedScanTime=427
ExtraParametersMask=0
GeneratorCurrent=10
GeneratorVoltage=30
Increment=0.0201685
Increment3=0
NumberOfCompletedData=1885
NumberOfCounts=1
NumberOfDetectors=0
NumberOfDrives=3
NumberOfEncoderDrives=0
NumberOfMeasuredData=1885
NumberOfVaryingParameters=0
RangeStartTime=0
RotationSpeed=0
ScanMode=1
ScanType=Locked Coupled
SimulatedMeasConditions=0
SlitChangerIn=0
SmootingWidth=0
Start=40.0015
Steps=1885
SynchronousRotation=0
Time=33

[VarInfo]
Type=PSD_DISCRIM
Flags=0
Value=0.11;0.5

[VarInfo]
Type=OPTICS_V5
Flags=0
Value=H4sIAAAAAAAEAO1d63KjOhJ+Fda/zqmtBIPtXKaITzm2J+OaOHbFTnKmtrZcBORYZzC4AOey//d99hl2X2x1QViIS8C3JBN+TCaodWm6+2vUUkfS/nieW9IjcD3o2GcV5bBakYBtOCa0H84qS396oBxV/mhqF44NnTnwgdt25gvHBrbf0X1dQq1t78uzB88qM99ffJHlp6enw6faoeM+yGq1qsh/9i9HxgzM9QNoe75uG6AStjJfb1WRbqEH7y1wpc/BWWXFR0joAM9w4cInL/Bj4UHLsSW+3oXrLBc9NBZ6t3Pgojcb3P8FDH+o+7OzitwBj9AAMt+CrxUfl1Lblu55QRehTORzoM8XqLDt2L4ObeBy/coBc6yHluEvdYtxoR6o1ePT02O5h8TkLue4tzhrTW2EZGjqqBswQr3oFvyXjl+9OdUtD2hyGln7c259hcAyrwHqHhq4EDFpA/KbJ8lNjfKD1ToCFipvdm00JDA1OUbR6Btwou9Ab2HpL824AjQ5tXK8m+bF4OrHhPzodEft64TGrBVWDOsoPhpP1bBWhrxWvISy1r0hIUP+4r8skMLHrm78xG8sGODQhXPdfSHkZBMMakgD9GxISBvSeHkPOIFIQeOidilHx44baRI9r5mSRmyEDSxUYBJZ3blu/xy4JnCvAfYzAL0wsdX3b8s5NVnMwIfj6+8T9KPV/l7IxHm5Jhp5z0OvBh9BE+kGCS98DAk920dCZMIVSikeHA9SJulgmhwp1bAq2ZMXfZT4B2LSAxc+QFu3ogSlwl6OWi7Ssb/0moPwnSLFGmsYPPedJdIj0qJQrgWE0MJ5JCOdEXICmjFtjmnJUA7J0tRxpRHQLUBtYA3AytxYcejGiMm4JZa46kmmLG0LrhEWBa3xcus++8A2MZDfDYZpCWdMkQKtj5nwHfcltGVFk+OFGseMJxH2qHoYWND7cnJosmJN5ku1uCnh1+H65qyTKx3Y545jAR1NEG5s6BPpdiDSG56bXcI59IlYwiKvWdVk7knrgKm+tPxb3VoCboigVyQ96CPXTshnFewlKri/oQta5l9LD8GnYEuZYx67mbHTJoqe6ZblPK0cjVCOarZnwPgJzFUVVqC1ESPOHKsWvx33pNH5Zl7erhEyxkg2xVq1lr7TdoHug6HrLIDrvzAWEyiR9/eIRfdMhLKr5fweuE21rslCEdaQRS08UPF//xMyUSUc9B0TNG8Quqbos4xMnTwz90Y+PzEHluy7tuWt5HgP/ND5vNXOHBXjLvaN2aNbYuh5A79Evm3IJvErCL6JJ23LP418rD3OPSHRTOHDEjnla/gw85sIdabECnU0BoKwUKWYS+vrz5fAfvBnTbXRwKJhj2nOjrJISkNktZevObqMVm/q5DL4SnFwGS02cm5pFninPwKqkpa1mOmKYIUieVuWOJh2nCVqyWzxf//ehzWm2Nxw9uJBQ7dIeQJnTA/KYaNePXrNFtfo7ca2MPfItOjcf/WMZelYS+paugfVBtErK9H60Ibz5bx5oBwenx4fndaUWv3kSK0pjePu32vVE4S4oAZGIvklvWZQ4W0Rs4b0UpC0Rk/7QJiajTD10yOsXjvdJsRYdyXGNhLfFkDGuto1yh6Bqz+IoV6M/ulxppzUt4kz1l2Js43EtwWcsa52jLNz4OupIMPET46w2qmqqttD2Kq7EmEbiW9jhK262jHCrvGaRirECHVXGHuvCFutth02NsJWrKMSVWsKbh08xTrZCZK+OsbSG7gQ2D5ZHRSgJJK3tspG1g4H057tH9XfH6CibEVXr/OjKbkXhfRCBYDfqOeDOWLs0nmABl3VvJn0rm5bl73OpP2tN9TkFYkJfAye/WbPftQtiMQzg4uVjCJaIvW07+CFjI1lEf6uyTEWsnm67F2lsnIJbSARW0kbWtlk6OEgY+yhA20/e3B1k8GZLoaD0auqCHeKD6S58wgk35HmwJjpNrYKCTmTxd/SeKxl8/ienF2WXefzdFk9bOTm6N5Lz546UqiqhAVciZbr3FOQY3BWIVUkVBrdJr+ZtC6H31rRcrGRhEeyyEjkXXKxo0bYURPZUVPYUbPYUQuzEywL8PxEyoQBQloib5PW7UUWe0HrokySmCrg8D78PeybkkWGzrvjVjIvuH4+FiIbUQEDqBXeyxN46LJSkY3uZbffvRqnSMV2TCAFbaXVSDlkQmfBvNq4EkHsASVZZdetcW+QpTTSOp+8YlOLgL9pYnk4ToQicvl10J4MrpMZJONJkeZyfMe6Ed+xvgA2skTfcYU8TFacvPmcsQFLZ8dr7r82tXQiP3O7dSw/voYXlO4q5vl5u6WEjcypLxqFfRNqVSHyCL4FKaFHctihVBMCjFp1f7FErbF+MBEXRsEvZLo55TW19tJ1sT+LmlpQuitTm7f2YWpolHD6sQ1TaySFsh/E0uKy2LulDZ0nkgHOmxQp25WV3aUEnW+xcHMnRJr5lluqhymm+EkWW+4491hde7Ul3ssWbV9+7YtfJA0UTQyNGXBfyVbbPA8ud74bklUw60j9YgWfilQ/I4dzraYmBmuZ2QhiKJW9qxqLdLI3h6IxR/YytzAXT1vD42MIIXVJnC4nR8cylyaJ7OZRhxZeJcCPHu2eWH2ZQFkmUJYJlGUCZZlA+fE2xcsEyvezJV4mUP6aCCsTKN8TxsoEyl8VZ2UC5XvCWZlA+ashrEygfE8IKxMoywTKMoGyTKAsEyjLBMoygbJMoCwTKMsEyjKBskygLBMoywTKMoGyTKAsEyjLBMoygbJMoHzr+KNMoCwTKD9tAiXLkUS/iumT7KzT+Cmg4tm7GScqd+cL/4UkG4arGcVOT+72h4PRhP4scnoyGTg0xcTzk2U+BzLzcGMl7XBjde+HGw8WbefceR5MR45lATfhiGNKyDjkmKsg/WbotmTQQ8ElNJZEifQE7N/XgX9k+LhXSSBnuYaE6hunwkb7FPSZfOxxRGTIPPKL8PePe2KymphYK0bAR+scevtxXAin6Q2diJrmRGpv50S+wmdgEkNlcw/RmVjQz3IliCz1U2CAaRv4kdXICV5EJGb6ELHy5h6E61FQZYr/YA2o98gntQ/sOmq5XMfxeudlE7OmVzSsTJpYMhZe0hcRy1SR/jGf/zPDjH/DR/7fA2QfErQ9hAVgol98R9I5hWWaMq5mhBds4KeJUp0oaQYcIb5mwIVtN52ZmPP5qH/5US30lx930PRnYm4HLtvZktP8/WxBxzgL44DNsuvjPeVdZqh+7nWGuODWWWeI97KTtI5vABumgB1a+LnBszXslNBZz+i3gpzt3wSirjOzGenzhQXuZgBYY/QC/KUgIkkjH65UJ0ChmfamMj+F+lCxGJtFbxiJ1dIisfpGkRjhMR6HvT9h3thLD5hkeHHgLInKwm1g17oJl16CldWVYB+fXrg3mE494KdZfesZevz3Iay2B1ceYybnbh1ywVU1LSlVPTypn6qNRkNN8LvHjcOTRv24dqQqvK8VhNAM7mETbitc+w7DEUCRgJl9i2FYh7v9roNCXwNnMmzhLkORh4SYKLFGsfsMwz42ifVFRj70nYaF9FrM/4zwzYaj4jcbRuW787sNw+F2cbvhyRss3uHlOks3wMyxzMQtgMsX+xm8pBxzcfnj6s/ujy654bCjSsOZ7olX4OYEsRyOEwezQMpa3mDWKOO8X3k4Wj2jProvYAvX6KYzLmrzl7v28CTPUlxNiU9Yi8wL0ecUu0XdWrmWfniNJk2pxn6HJHazGl4xZ9PpjyfkXwFHw4ba6R6gstmscZebgP09bgIKCIswkLYN2N/zNmAmj6JSs3YC+59rJ1Cp53Ii1c+wFVhGSkUjpbRAqXF4dHrSUJRqPWmBqqEcHldP68dqfQeB0sontAHGieA9hcKI4+SmzLSadMAw70kjnLfkkW8dVkPLMIDnOS4E3hoRE+Mi7j2jlLwRUvyl1/ekrIcPHRqtqcpiLudicNWekB9FHA7lZ+eh0Ri4qHQnkdHp3mdFwxkkShPAfO0EGXBRYgTUqKlErdE1Wb0CGJXZGHSdNqGDKCsJ1TJnP6vqMuJUZpxuDuAUxgVFpsREEgUYMFu+rxszPNBZ5WDPRwluc5pzmitr4SQ+y+l5TBQhKMMCjfMcZLfIWj48ALPjYkzSv8ZE3eHvWs9sIu2S3oNHTCEVRwtgwGnwt6KsUpyC4BLvvcgEK46DYs5u+K03mpAfRZxdFKHbnGBVi0yvQisOP5lEYfRDEPwf22IqXU7pckqXI7qcECvsd+8VLsZPznhGTjB6jZVIzZz8ZA+dc9yig6ZEJvFifFQxXo8YAd9H0PIkfi6GHAXNPKxILbzB7vVR6AbplI5NtLGOuVT/5i2e1Rn4EFu+VFtBkewhB6uqmiyUa3yqI/WAkWUTj/6JxSqYYK6D6Pv/u9RXv2COAAA=

[PSD]
ActualTwoTheta=9999
FirstUsedChannel=0
FixedPSD=0
PSDOpening=4.99171
PSDType=5

[Drive]
DriveFlags=1
DriveName=2Theta
DriveNumber=2
DriveOffset=0
OffsetIndex=0
OscillationAmplitude=0
OscillationSpeed=0
StartPosition=40.0015

[Drive]
DriveFlags=1
DriveName=Theta
DriveNumber=1
DriveOffset=0
OffsetIndex=0
OscillationAmplitude=0
OscillationSpeed=0
StartPosition=20.0007

[Drive]
DriveFlags=1
DriveName=Phi
DriveNumber=3
DriveOffset=0
OffsetIndex=0
OscillationAmplitude=0
OscillationSpeed=0
StartPosition=0

[Data]
     Angle,       PSD,
   40.0015,       651,
   40.0217,       613,
   40.0418,       666,
    40.062,       602,
   40.0822,       627,
   40.1023,       629,
   40.1225,       639,
   40.1427,       687,
   40.1628,       696,
    40.183,       637,
   40.2032,       635,
   40.2233,       667,
   40.2435,       645,
   40.2637,       625,
   40.2838,       654,
    40.304,       655,
   40.3242,       645,
   40.3444,       635,
   40.3645,       619,
   40.3847,       624,
   40.4049,       648,
    40.425,       630,
   40.4452,       621,
   40.4654,       633,
   40.4855,       652,
   40.5057,       618,
   40.5259,       645,
    40.546,       605,
   40.5662,       597,
   40.5864,       631,
   40.6065,       631,
   40.6267,       660,
   40.6469,       632,
   40.6671,       648,
   40.6872,       681,
   40.7074,       633,
   40.7276,       658,
   40.7477,       663,
   40.7679,       609,
   40.7881,       622,
   40.8082,       634,
   40.8284,       647,
   40.8486,       636,
   40.8687,       621,
   40.8889,       647,
   40.9091,       606,
   40.9292,       643,
   40.9494,       680,
   40.9696,       626,
   40.9897,       647,
   41.0099,       639,
   41.0301,       660,
   41.0503,       678,
   41.0704,       688,
   41.0906,       628,
   41.1108,       618,
   41.1309,       638,
   41.1511,       677,
   41.1713,       647,
   41.1914,       584,
   41.2116,       655,
   41.2318,       639,
   41.2519,       669,
   41.2721,       639,
   41.2923,       635,
   41.3124,       653,
   41.3326,       671,
   41.3528,       653,
   41.3729,       664,
   41.3931,       654,
   41.4133,       696,
   41.4335,       678,
   41.4536,       646,
   41.4738,       652,
    41.494,       652,
   41.5141,       691,
   41.5343,       591,
   41.5545,       705,
   41.5746,       692,
   41.5948,       667,
    41.615,       620,
   41.6351,       618,
   41.6553,       690,
   41.6755,       660,
   41.6956,       647,
   41.7158,       677,
    41.736,       707,
   41.7562,       646,
   41.7763,       624,
   41.7965,       658,
   41.8167,       653,
   41.8368,       670,
    41.857,       672,
   41.8772,       691,
   41.8973,       712,
   41.9175,       742,
   41.9377,       756,
   41.9578,       760,
    41.978,       758,
   41.9982,       754,
   42.0183,       780,
   42.0385,       744,
   42.0587,       745,
   42.0788,       785,
    42.099,       811,
   42.1192,       767,
   42.1394,       786,
   42.1595,       768,
   42.1797,       814,
   42.1999,       841,
     42.22,       768,
   42.2402,       770,
   42.2604,       806,
   42.2805,       808,
   42.3007,       808,
   42.3209,       775,
    42.341,       790,
   42.3612,       763,
   42.3814,       789,
   42.4015,       784,
   42.4217,       773,
   42.4419,       793,
    42.462,       800,
   42.4822,       746,
   42.5024,       801,
   42.5226,       798,
   42.5427,       801,
   42.5629,       819,
   42.5831,       789,
   42.6032,       800,
   42.6234,       777,
   42.6436,       782,
   42.6637,       807,
   42.6839,       838,
   42.7041,       814,
   42.7242,       795,
   42.7444,       800,
   42.7646,       813,
   42.7847,       791,
   42.8049,       872,
   42.8251,       843,
   42.8453,       839,
   42.8654,       818,
   42.8856,       876,
   42.9058,       868,
   42.9259,       885,
   42.9461,       917,
   42.9663,       964,
   42.9864,       959,
   43.0066,      1047,
   43.0268,      1083,
   43.0469,      1079,
   43.0671,      1206,
   43.0873,      1193,
   43.1074,      1217,
   43.1276,      1270,
   43.1478,      1374,
   43.1679,      1394,
   43.1881,      1508,
   43.2083,      1689,
   43.2285,      1782,
   43.2486,      2159,
   43.2688,      2135,
    43.289,      2276,
   43.3091,      2537,
   43.3293,      2851,
   43.3495,      3387,
   43.3696,      4747,
   43.3898,      7995,
     43.41,     17042,
   43.4301,     36851,
   43.4503,     58900,
   43.4705,     54109,
   43.4906,     30493,
   43.5108,     16261,
    43.531,     16750,
   43.5511,     25705,
   43.5713,     31943,
   43.5915,     23718,
   43.6117,     11886,
   43.6318,      5701,
    43.652,      3647,
   43.6722,      2820,
   43.6923,      2320,
   43.7125,      2058,
   43.7327,      1939,
   43.7528,      1719,
    43.773,      1643,
   43.7932,      1567,
   43.8133,      1350,
   43.8335,      1237,
   43.8537,      1211,
   43.8738,      1105,
    43.894,      1085,
   43.9142,       974,
   43.9344,      1008,
   43.9545,      1000,
   43.9747,       968,
   43.9949,       931,
    44.015,       907,
   44.0352,       871,
   44.0554,       896,
   44.0755,       817,
   44.0957,       844,
   44.1159,       868,
    44.136,       847,
   44.1562,       902,
   44.1764,       810,
   44.1965,       839,
   44.2167,       839,
   44.2369,       795,
    44.257,       808,
   44.2772,       862,
   44.2974,       822,
   44.3176,       771,
   44.3377,       789,
   44.3579,       787,
   44.3781,       862,
   44.3982,       793,
   44.4184,       750,
   44.4386,       783,
   44.4587,       818,
   44.4789,       798,
   44.4991,       749,
   44.5192,       769,
   44.5394,       747,
   44.5596,       743,
   44.5797,       730,
   44.5999,       750,
   44.6201,       818,
   44.6402,       797,
   44.6604,       754,
   44.6806,       777,
   44.7008,       720,
   44.7209,       760,
   44.7411,       761,
   44.7613,       733,
   44.7814,       723,
   44.8016,       725,
   44.8218,       715,
   44.8419,       716,
   44.8621,       742,
   44.8823,       752,
   44.9024,       789,
   44.9226,       751,
   44.9428,       739,
   44.9629,       745,
   44.9831,       755,
   45.0033,       745,
   45.0235,       748,
   45.0436,       776,
   45.0638,       757,
    45.084,       730,
   45.1041,       726,
   45.1243,       751,
   45.1445,       762,
   45.1646,       737,
   45.1848,       716,
    45.205,       740,
   45.2251,       716,
   45.2453,       727,
   45.2655,       719,
   45.2856,       716,
   45.3058,       762,
    45.326,       740,
   45.3461,       748,
   45.3663,       704,
   45.3865,       756,
   45.4067,       708,
   45.4268,       747,
    45.447,       744,
   45.4672,       699,
   45.4873,       753,
   45.5075,       752,
   45.5277,       742,
   45.5478,       699,
    45.568,       718,
   45.5882,       698,
   45.6083,       725,
   45.6285,       732,
   45.6487,       766,
   45.6688,       727,
    45.689,       711,
   45.7092,       728,
   45.7294,       708,
   45.7495,       703,
   45.7697,       765,
   45.7899,       652,
     45.81,       675,
   45.8302,       654,
   45.8504,       686,
   45.8705,       697,
   45.8907,       705,
   45.9109,       718,
    45.931,       739,
   45.9512,       693,
   45.9714,       730,
   45.9915,       694,
   46.0117,       714,
   46.0319,       728,
    46.052,       721,
   46.0722,       692,
   46.0924,       689,
   46.1126,       689,
   46.1327,       692,
   46.1529,       686,
   46.1731,       718,
   46.1932,       706,
   46.2134,       731,
   46.2336,       740,
   46.2537,       688,
   46.2739,       685,
   46.2941,       662,
   46.3142,       672,
   46.3344,       697,
   46.3546,       757,
   46.3747,       708,
   46.3949,       716,
   46.4151,       652,
   46.4352,       708,
   46.4554,       738,
   46.4756,       706,
   46.4958,       699,
   46.5159,       705,
   46.5361,       666,
   46.5563,       712,
   46.5764,       734,
   46.5966,       722,
   46.6168,       712,
   46.6369,       692,
   46.6571,       704,
   46.6773,       670,
   46.6974,       652,
   46.7176,       691,
   46.7378,       680,
   46.7579,       667,
   46.7781,       702,
   46.7983,       675,
   46.8185,       696,
   46.8386,       707,
   46.8588,       726,
    46.879,       702,
   46.8991,       736,
   46.9193,       696,
   46.9395,       676,
   46.9596,       703,
   46.9798,       706,
        47,       661,
   47.0201,       690,
   47.0403,       704,
   47.0605,       687,
   47.0806,       713,
   47.1008,       708,
    47.121,       652,
   47.1411,       705,
   47.1613,       694,
   47.1815,       685,
   47.2017,       690,
   47.2218,       716,
    47.242,       676,
   47.2622,       709,
   47.2823,       697,
   47.3025,       654,
   47.3227,       728,
   47.3428,       720,
    47.363,       678,
   47.3832,       610,
   47.4033,       692,
   47.4235,       636,
   47.4437,       652,
   47.4638,       689,
    47.484,       681,
   47.5042,       669,
   47.5243,       681,
   47.5445,       681,
   47.5647,       729,
   47.5849,       669,
    47.605,       735,
   47.6252,       673,
   47.6454,       709,
   47.6655,       686,
   47.6857,       705,
   47.7059,       645,
    47.726,       668,
   47.7462,       693,
   47.7664,       665,
   47.7865,       634,
   47.8067,       700,
   47.8269,       675,
    47.847,       665,
   47.8672,       718,
   47.8874,       720,
   47.9076,       672,
   47.9277,       661,
   47.9479,       677,
   47.9681,       643,
   47.9882,       682,
   48.0084,       695,
   48.0286,       686,
   48.0487,       723,
   48.0689,       658,
   48.0891,       648,
   48.1092,       664,
   48.1294,       670,
   48.1496,       675,
   48.1697,       725,
   48.1899,       697,
   48.2101,       695,
   48.2302,       671,
   48.2504,       643,
   48.2706,       702,
   48.2908,       685,
   48.3109,       639,
   48.3311,       732,
   48.3513,       680,
   48.3714,       676,
   48.3916,       657,
   48.4118,       669,
   48.4319,       678,
   48.4521,       717,
   48.4723,       671,
   48.4924,       667,
   48.5126,       664,
   48.5328,       659,
   48.5529,       679,
   48.5731,       674,
   48.5933,       674,
   48.6134,       705,
   48.6336,       720,
   48.6538,       656,
    48.674,       737,
   48.6941,       654,
   48.7143,       671,
   48.7345,       619,
   48.7546,       656,
   48.7748,       659,
    48.795,       703,
   48.8151,       696,
   48.8353,       659,
   48.8555,       709,
   48.8756,       672,
   48.8958,       718,
    48.916,       703,
   48.9361,       746,
   48.9563,       686,
   48.9765,       662,
   48.9967,       742,
   49.0168,       678,
    49.037,       701,
   49.0572,       734,
   49.0773,       692,
   49.0975,       699,
   49.1177,       691,
   49.1378,       685,
    49.158,       683,
   49.1782,       690,
   49.1983,       701,
   49.2185,       692,
   49.2387,       647,
   49.2588,       728,
    49.279,       677,
   49.2992,       695,
   49.3193,       739,
   49.3395,       689,
   49.3597,       746,
   49.3799,       661,
      49.4,       684,
   49.4202,       696,
   49.4404,       675,
   49.4605,       680,
   49.4807,       653,
   49.5009,       683,
    49.521,       686,
   49.5412,       687,
   49.5614,       710,
   49.5815,       761,
   49.6017,       701,
   49.6219,       698,
    49.642,       749,
   49.6622,       703,
   49.6824,       698,
   49.7025,       690,
   49.7227,       718,
   49.7429,       705,
   49.7631,       695,
   49.7832,       728,
   49.8034,       722,
   49.8236,       684,
   49.8437,       705,
   49.8639,       730,
   49.8841,       726,
   49.9042,       735,
   49.9244,       751,
   49.9446,       687,
   49.9647,       682,
   49.9849,       749,
   50.0051,       681,
   50.0252,       729,
   50.0454,       749,
   50.0656,       799,
   50.0858,       764,
   50.1059,       763,
   50.1261,       773,
   50.1463,       756,
   50.1664,       895,
   50.1866,       827,
   50.2068,       846,
   50.2269,       826,
   50.2471,       882,
   50.2673,       906,
   50.2874,       918,
   50.3076,      1014,
   50.3278,      1020,
   50.3479,      1105,
   50.3681,      1129,
   50.3883,      1223,
   50.4084,      1250,
   50.4286,      1313,
   50.4488,      1442,
    50.469,      1637,
   50.4891,      2146,
   50.5093,      3117,
   50.5295,      4728,
   50.5496,      7715,
   50.5698,     10713,
     50.59,     11654,
   50.6101,      9508,
   50.6303,      6454,
   50.6505,      4723,
   50.6706,      4692,
   50.6908,      5568,
    50.711,      6489,
   50.7311,      6338,
   50.7513,      4759,
   50.7715,      3164,
   50.7917,      2174,
   50.8118,      1689,
    50.832,      1381,
   50.8522,      1253,
   50.8723,      1087,
   50.8925,      1023,
   50.9127,       996,
   50.9328,       964,
    50.953,       928,
   50.9732,       909,
   50.9933,       820,
   51.0135,       892,
   51.0337,       838,
   51.0538,       787,
    51.074,       811,
   51.0942,       800,
   51.1143,       808,
   51.1345,       778,
   51.1547,       734,
   51.1749,       754,
    51.195,       786,
   51.2152,       680,
   51.2354,       713,
   51.2555,       753,
   51.2757,       738,
   51.2959,       725,
    51.316,       694,
   51.3362,       685,
   51.3564,       618,
   51.3765,       678,
   51.3967,       703,
   51.4169,       695,
    51.437,       667,
   51.4572,       712,
   51.4774,       676,
   51.4975,       700,
   51.5177,       724,
   51.5379,       663,
   51.5581,       657,
   51.5782,       679,
   51.5984,       693,
   51.6186,       683,
   51.6387,       683,
   51.6589,       687,
   51.6791,       660,
   51.6992,       611,
   51.7194,       661,
   51.7396,       706,
   51.7597,       663,
   51.7799,       678,
   51.8001,       670,
   51.8202,       687,
   51.8404,       677,
   51.8606,       689,
   51.8808,       672,
   51.9009,       659,
   51.9211,       690,
   51.9413,       656,
   51.9614,       683,
   51.9816,       663,
   52.0018,       589,
   52.0219,       664,
   52.0421,       673,
   52.0623,       708,
   52.0824,       654,
   52.1026,       670,
   52.1228,       679,
   52.1429,       629,
   52.1631,       672,
   52.1833,       662,
   52.2034,       641,
   52.2236,       685,
   52.2438,       680,
    52.264,       689,
   52.2841,       664,
   52.3043,       672,
   52.3245,       654,
   52.3446,       655,
   52.3648,       706,
    52.385,       677,
   52.4051,       634,
   52.4253,       650,
   52.4455,       716,
   52.4656,       671,
   52.4858,       630,
    52.506,       664,
   52.5261,       736,
   52.5463,       674,
   52.5665,       673,
   52.5866,       630,
   52.6068,       672,
    52.627,       688,
   52.6472,       645,
   52.6673,       667,
   52.6875,       622,
   52.7077,       633,
   52.7278,       713,
    52.748,       618,
   52.7682,       628,
   52.7883,       656,
   52.8085,       652,
   52.8287,       620,
   52.8488,       670,
    52.869,       664,
   52.8892,       667,
   52.9093,       654,
   52.9295,       639,
   52.9497,       629,
   52.9699,       646,
     52.99,       627,
   53.0102,       643,
   53.0304,       667,
   53.0505,       632,
   53.0707,       646,
   53.0909,       676,
    53.111,       628,
   53.1312,       676,
   53.1514,       620,
   53.1715,       638,
   53.1917,       640,
   53.2119,       677,
    53.232,       674,
   53.2522,       638,
   53.2724,       649,
   53.2925,       657,
   53.3127,       671,
   53.3329,       614,
   53.3531,       681,
   53.3732,       658,
   53.3934,       677,
   53.4136,       617,
   53.4337,       635,
   53.4539,       670,
   53.4741,       659,
   53.4942,       659,
   53.5144,       598,
   53.5346,       603,
   53.5547,       693,
   53.5749,       676,
   53.5951,       692,
   53.6152,       675,
   53.6354,       633,
   53.6556,       638,
   53.6757,       653,
   53.6959,       665,
   53.7161,       708,
   53.7363,       587,
   53.7564,       656,
   53.7766,       700,
   53.7968,       651,
   53.8169,       639,
   53.8371,       705,
   53.8573,       641,
   53.8774,       666,
   53.8976,       624,
   53.9178,       655,
   53.9379,       693,
   53.9581,       632,
   53.9783,       637,
   53.9984,       634,
   54.0186,       654,
   54.0388,       662,
    54.059,       636,
   54.0791,       623,
   54.0993,       677,
   54.1195,       625,
   54.1396,       606,
   54.1598,       644,
     54.18,       668,
   54.2001,       687,
   54.2203,       631,
   54.2405,       650,
   54.2606,       660,
   54.2808,       626,
    54.301,       604,
   54.3211,       682,
   54.3413,       629,
   54.3615,       654,
   54.3816,       617,
   54.4018,       666,
    54.422,       636,
   54.4422,       638,
   54.4623,       647,
   54.4825,       631,
   54.5027,       712,
   54.5228,       702,
    54.543,       642,
   54.5632,       610,
   54.5833,       597,
   54.6035,       630,
   54.6237,       622,
   54.6438,       653,
    54.664,       590,
   54.6842,       607,
   54.7043,       668,
   54.7245,       617,
   54.7447,       651,
   54.7648,       650,
    54.785,       642,
   54.8052,       686,
   54.8254,       644,
   54.8455,       650,
   54.8657,       632,
   54.8859,       647,
    54.906,       676,
   54.9262,       625,
   54.9464,       636,
   54.9665,       669,
   54.9867,       683,
   55.0069,       661,
    55.027,       650,
   55.0472,       644,
   55.0674,       666,
   55.0875,       634,
   55.1077,       632,
   55.1279,       618,
   55.1481,       632,
   55.1682,       656,
   55.1884,       652,
   55.2086,       643,
   55.2287,       623,
   55.2489,       663,
   55.2691,       652,
   55.2892,       618,
   55.3094,       676,
   55.3296,       657,
   55.3497,       661,
   55.3699,       669,
   55.3901,       604,
   55.4102,       662,
   55.4304,       638,
   55.4506,       654,
   55.4707,       654,
   55.4909,       642,
   55.5111,       629,
   55.5313,       611,
   55.5514,       644,
   55.5716,       656,
   55.5918,       667,
   55.6119,       705,
   55.6321,       642,
   55.6523,       652,
   55.6724,       609,
   55.6926,       615,
   55.7128,       670,
   55.7329,       628,
   55.7531,       598,
   55.7733,       640,
   55.7934,       655,
   55.8136,       570,
   55.8338,       607,
    55.854,       619,
   55.8741,       653,
   55.8943,       645,
   55.9145,       652,
   55.9346,       676,
   55.9548,       608,
    55.975,       678,
   55.9951,       609,
   56.0153,       689,
   56.0355,       627,
   56.0556,       621,
   56.0758,       634,
    56.096,       648,
   56.1161,       630,
   56.1363,       617,
   56.1565,       662,
   56.1766,       663,
   56.1968,       588,
    56.217,       600,
   56.2372,       657,
   56.2573,       596,
   56.2775,       624,
   56.2977,       646,
   56.3178,       647,
    56.338,       661,
   56.3582,       659,
   56.3783,       653,
   56.3985,       595,
   56.4187,       666,
   56.4388,       618,
    56.459,       630,
   56.4792,       661,
   56.4993,       667,
   56.5195,       632,
   56.5397,       680,
   56.5598,       675,
     56.58,       609,
   56.6002,       637,
   56.6204,       621,
   56.6405,       630,
   56.6607,       601,
   56.6809,       593,
    56.701,       629,
   56.7212,       606,
   56.7414,       667,
   56.7615,       649,
   56.7817,       628,
   56.8019,       610,
    56.822,       609,
   56.8422,       654,
   56.8624,       646,
   56.8825,       623,
   56.9027,       618,
   56.9229,       615,
   56.9431,       633,
   56.9632,       637,
   56.9834,       614,
   57.0036,       632,
   57.0237,       613,
   57.0439,       590,
   57.0641,       619,
   57.0842,       629,
   57.1044,       636,
   57.1246,       635,
   57.1447,       670,
   57.1649,       683,
   57.1851,       610,
   57.2052,       624,
   57.2254,       619,
   57.2456,       630,
   57.2657,       646,
   57.2859,       670,
   57.3061,       621,
   57.3263,       647,
   57.3464,       647,
   57.3666,       658,
   57.3868,       628,
   57.4069,       671,
   57.4271,       613,
   57.4473,       617,
   57.4674,       635,
   57.4876,       645,
   57.5078,       619,
   57.5279,       605,
   57.5481,       572,
   57.5683,       616,
   57.5884,       659,
   57.6086,       686,
   57.6288,       599,
   57.6489,       645,
   57.6691,       659,
   57.6893,       633,
   57.7095,       602,
   57.7296,       626,
   57.7498,       590,
     57.77,       602,
   57.7901,       658,
   57.8103,       657,
   57.8305,       600,
   57.8506,       640,
   57.8708,       688,
    57.891,       645,
   57.9111,       593,
   57.9313,       626,
   57.9515,       620,
   57.9716,       657,
   57.9918,       641,
    58.012,       601,
   58.0322,       647,
   58.0523,       630,
   58.0725,       660,
   58.0927,       642,
   58.1128,       640,
    58.133,       656,
   58.1532,       625,
   58.1733,       640,
   58.1935,       616,
   58.2137,       638,
   58.2338,       586,
    58.254,       571,
   58.2742,       602,
   58.2943,       665,
   58.3145,       659,
   58.3347,       668,
   58.3548,       586,
    58.375,       603,
   58.3952,       612,
   58.4154,       629,
   58.4355,       641,
   58.4557,       606,
   58.4759,       640,
    58.496,       652,
   58.5162,       594,
   58.5364,       636,
   58.5565,       643,
   58.5767,       626,
   58.5969,       615,
    58.617,       614,
   58.6372,       641,
   58.6574,       622,
   58.6775,       656,
   58.6977,       663,
   58.7179,       615,
    58.738,       600,
   58.7582,       651,
   58.7784,       659,
   58.7986,       582,
   58.8187,       660,
   58.8389,       551,
   58.8591,       609,
   58.8792,       610,
   58.8994,       605,
   58.9196,       570,
   58.9397,       656,
   58.9599,       627,
   58.9801,       662,
   59.0002,       603,
   59.0204,       617,
   59.0406,       559,
   59.0607,       618,
   59.0809,       634,
   59.1011,       606,
   59.1213,       631,
   59.1414,       646,
   59.1616,       612,
   59.1818,       592,
   59.2019,       614,
   59.2221,       624,
   59.2423,       598,
   59.2624,       600,
   59.2826,       624,
   59.3028,       602,
   59.3229,       646,
   59.3431,       701,
   59.3633,       625,
   59.3834,       566,
   59.4036,       587,
   59.4238,       637,
   59.4439,       617,
   59.4641,       626,
   59.4843,       601,
   59.5045,       613,
   59.5246,       615,
   59.5448,       654,
    59.565,       622,
   59.5851,       642,
   59.6053,       608,
   59.6255,       638,
   59.6456,       621,
   59.6658,       568,
    59.686,       654,
   59.7061,       631,
   59.7263,       627,
   59.7465,       585,
   59.7666,       595,
   59.7868,       600,
    59.807,       621,
   59.8271,       650,
   59.8473,       622,
   59.8675,       610,
   59.8877,       674,
   59.9078,       638,
    59.928,       671,
   59.9482,       629,
   59.9683,       650,
   59.9885,       631,
   60.0087,       575,
   60.0288,       639,
    60.049,       628,
   60.0692,       589,
   60.0893,       608,
   60.1095,       617,
   60.1297,       589,
   60.1498,       617,
     60.17,       609,
   60.1902,       627,
   60.2104,       619,
   60.2305,       611,
   60.2507,       646,
   60.2709,       629,
    60.291,       637,
   60.3112,       615,
   60.3314,       656,
   60.3515,       649,
   60.3717,       608,
   60.3919,       599,
    60.412,       650,
   60.4322,       586,
   60.4524,       624,
   60.4725,       616,
   60.4927,       630,
   60.5129,       623,
    60.533,       643,
   60.5532,       647,
   60.5734,       667,
   60.5936,       622,
   60.6137,       616,
   60.6339,       626,
   60.6541,       600,
   60.6742,       561,
   60.6944,       573,
   60.7146,       622,
   60.7347,       624,
   60.7549,       649,
   60.7751,       625,
   60.7952,       625,
   60.8154,       663,
   60.8356,       626,
   60.8557,       666,
   60.8759,       643,
   60.8961,       643,
   60.9163,       643,
   60.9364,       577,
   60.9566,       631,
   60.9768,       653,
   60.9969,       598,
   61.0171,       678,
   61.0373,       591,
   61.0574,       681,
   61.0776,       624,
   61.0978,       610,
   61.1179,       582,
   61.1381,       609,
   61.1583,       638,
   61.1784,       635,
   61.1986,       636,
   61.2188,       595,
   61.2389,       601,
   61.2591,       608,
   61.2793,       616,
   61.2995,       647,
   61.3196,       607,
   61.3398,       611,
     61.36,       649,
   61.3801,       622,
   61.4003,       623,
   61.4205,       621,
   61.4406,       609,
   61.4608,       583,
    61.481,       649,
   61.5011,       584,
   61.5213,       627,
   61.5415,       625,
   61.5616,       632,
   61.5818,       662,
    61.602,       608,
   61.6221,       631,
   61.6423,       605,
   61.6625,       601,
   61.6827,       614,
   61.7028,       578,
    61.723,       617,
   61.7432,       606,
   61.7633,       619,
   61.7835,       595,
   61.8037,       620,
   61.8238,       582,
    61.844,       604,
   61.8642,       602,
   61.8843,       623,
   61.9045,       610,
   61.9247,       642,
   61.9448,       614,
    61.965,       622,
   61.9852,       621,
   62.0054,       619,
   62.0255,       657,
   62.0457,       586,
   62.0659,       632,
    62.086,       577,
   62.1062,       625,
   62.1264,       626,
   62.1465,       630,
   62.1667,       604,
   62.1869,       623,
    62.207,       618,
   62.2272,       629,
   62.2474,       606,
   62.2675,       628,
   62.2877,       593,
   62.3079,       613,
    62.328,       613,
   62.3482,       623,
   62.3684,       628,
   62.3886,       638,
   62.4087,       626,
   62.4289,       643,
   62.4491,       590,
   62.4692,       630,
   62.4894,       579,
   62.5096,       632,
   62.5297,       627,
   62.5499,       623,
   62.5701,       604,
   62.5902,       608,
   62.6104,       637,
   62.6306,       644,
   62.6507,       597,
   62.6709,       637,
   62.6911,       588,
   62.7112,       643,
   62.7314,       624,
   62.7516,       651,
   62.7718,       589,
   62.7919,       598,
   62.8121,       625,
   62.8323,       603,
   62.8524,       636,
   62.8726,       633,
   62.8928,       622,
   62.9129,       626,
   62.9331,       600,
   62.9533,       615,
   62.9734,       608,
   62.9936,       615,
   63.0138,       636,
   63.0339,       606,
   63.0541,       634,
   63.0743,       594,
   63.0945,       624,
   63.1146,       618,
   63.1348,       612,
    63.155,       596,
   63.1751,       636,
   63.1953,       586,
   63.2155,       608,
   63.2356,       606,
   63.2558,       639,
    63.276,       625,
   63.2961,       616,
   63.3163,       592,
   63.3365,       630,
   63.3566,       659,
   63.3768,       640,
    63.397,       666,
   63.4171,       655,
   63.4373,       623,
   63.4575,       610,
   63.4777,       614,
   63.4978,       621,
    63.518,       631,
   63.5382,       638,
   63.5583,       629,
   63.5785,       567,
   63.5987,       586,
   63.6188,       623,
    63.639,       624,
   63.6592,       618,
   63.6793,       605,
   63.6995,       618,
   63.7197,       658,
   63.7398,       605,
     63.76,       613,
   63.7802,       614,
   63.8003,       579,
   63.8205,       632,
   63.8407,       649,
   63.8609,       630,
    63.881,       624,
   63.9012,       646,
   63.9214,       635,
   63.9415,       591,
   63.9617,       639,
   63.9819,       605,
    64.002,       617,
   64.0222,       582,
   64.0424,       589,
   64.0625,       631,
   64.0827,       581,
   64.1029,       624,
    64.123,       654,
   64.1432,       606,
   64.1634,       587,
   64.1836,       661,
   64.2037,       635,
   64.2239,       610,
   64.2441,       625,
   64.2642,       586,
   64.2844,       598,
   64.3046,       630,
   64.3247,       620,
   64.3449,       612,
   64.3651,       617,
   64.3852,       617,
   64.4054,       656,
   64.4256,       597,
   64.4457,       628,
   64.4659,       581,
   64.4861,       613,
   64.5062,       656,
   64.5264,       605,
   64.5466,       667,
   64.5668,       571,
   64.5869,       654,
   64.6071,       606,
   64.6273,       602,
   64.6474,       621,
   64.6676,       607,
   64.6878,       599,
   64.7079,       583,
   64.7281,       619,
   64.7483,       596,
   64.7684,       640,
   64.7886,       607,
   64.8088,       619,
   64.8289,       613,
   64.8491,       635,
   64.8693,       610,
   64.8894,       600,
   64.9096,       638,
   64.9298,       611,
     64.95,       620,
   64.9701,       633,
   64.9903,       645,
   65.0105,       631,
   65.0306,       616,
   65.0508,       607,
    65.071,       635,
   65.0911,       667,
   65.1113,       617,
   65.1315,       601,
   65.1516,       597,
   65.1718,       621,
    65.192,       624,
   65.2121,       653,
   65.2323,       616,
   65.2525,       573,
   65.2727,       620,
   65.2928,       645,
    65.313,       609,
   65.3332,       618,
   65.3533,       614,
   65.3735,       624,
   65.3937,       619,
   65.4138,       600,
    65.434,       593,
   65.4542,       615,
   65.4743,       618,
   65.4945,       660,
   65.5147,       599,
   65.5348,       641,
    65.555,       576,
   65.5752,       642,
   65.5953,       633,
   65.6155,       608,
   65.6357,       609,
   65.6559,       641,
    65.676,       626,
   65.6962,       615,
   65.7164,       595,
   65.7365,       570,
   65.7567,       626,
   65.7769,       654,
    65.797,       569,
   65.8172,       597,
   65.8374,       657,
   65.8575,       627,
   65.8777,       640,
   65.8979,       648,
    65.918,       582,
   65.9382,       607,
   65.9584,       616,
   65.9786,       631,
   65.9987,       635,
   66.0189,       637,
   66.0391,       601,
   66.0592,       623,
   66.0794,       572,
   66.0996,       619,
   66.1197,       610,
   66.1399,       657,
   66.1601,       681,
   66.1802,       654,
   66.2004,       639,
   66.2206,       662,
   66.2407,       619,
   66.2609,       611,
   66.2811,       651,
   66.3012,       575,
   66.3214,       574,
   66.3416,       651,
   66.3618,       625,
   66.3819,       611,
   66.4021,       590,
   66.4223,       604,
   66.4424,       599,
   66.4626,       639,
   66.4828,       627,
   66.5029,       645,
   66.5231,       622,
   66.5433,       625,
   66.5634,       570,
   66.5836,       593,
   66.6038,       591,
   66.6239,       634,
   66.6441,       620,
   66.6643,       618,
   66.6844,       641,
   66.7046,       596,
   66.7248,       574,
    66.745,       608,
   66.7651,       598,
   66.7853,       647,
   66.8055,       626,
   66.8256,       611,
   66.8458,       618,
    66.866,       599,
   66.8861,       619,
   66.9063,       610,
   66.9265,       626,
   66.9466,       624,
   66.9668,       620,
    66.987,       641,
   67.0071,       633,
   67.0273,       636,
   67.0475,       601,
   67.0677,       608,
   67.0878,       629,
    67.108,       621,
   67.1282,       629,
   67.1483,       615,
   67.1685,       642,
   67.1887,       610,
   67.2088,       624,
    67.229,       621,
   67.2492,       586,
   67.2693,       628,
   67.2895,       628,
   67.3097,       599,
   67.3298,       618,
     67.35,       565,
   67.3702,       613,
   67.3903,       644,
   67.4105,       610,
   67.4307,       638,
   67.4509,       615,
    67.471,       625,
   67.4912,       604,
   67.5114,       638,
   67.5315,       629,
   67.5517,       576,
   67.5719,       626,
    67.592,       600,
   67.6122,       627,
   67.6324,       586,
   67.6525,       617,
   67.6727,       622,
   67.6929,       591,
    67.713,       594,
   67.7332,       619,
   67.7534,       602,
   67.7735,       613,
   67.7937,       625,
   67.8139,       641,
   67.8341,       619,
   67.8542,       557,
   67.8744,       552,
   67.8946,       610,
   67.9147,       642,
   67.9349,       640,
   67.9551,       618,
   67.9752,       633,
   67.9954,       595,
   68.0156,       623,
   68.0357,       594,
   68.0559,       594,
   68.0761,       605,
   68.0962,       576,
   68.1164,       626,
   68.1366,       603,
   68.1568,       621,
   68.1769,       620,
   68.1971,       612,
   68.2173,       582,
   68.2374,       628,
   68.2576,       640,
   68.2778,       603,
   68.2979,       608,
   68.3181,       610,
   68.3383,       624,
   68.3584,       612,
   68.3786,       626,
   68.3988,       632,
   68.4189,       594,
   68.4391,       634,
   68.4593,       654,
   68.4794,       636,
   68.4996,       622,
   68.5198,       591,
     68.54,       588,
   68.5601,       636,
   68.5803,       589,
   68.6005,       605,
   68.6206,       620,
   68.6408,       589,
    68.661,       670,
   68.6811,       652,
   68.7013,       604,
   68.7215,       603,
   68.7416,       613,
   68.7618,       649,
    68.782,       642,
   68.8021,       649,
   68.8223,       629,
   68.8425,       641,
   68.8626,       631,
   68.8828,       602,
    68.903,       591,
   68.9232,       635,
   68.9433,       612,
   68.9635,       648,
   68.9837,       614,
   69.0038,       622,
    69.024,       601,
   69.0442,       622,
   69.0643,       632,
   69.0845,       598,
   69.1047,       567,
   69.1248,       649,
    69.145,       606,
   69.1652,       628,
   69.1853,       564,
   69.2055,       679,
   69.2257,       614,
   69.2459,       660,
    69.266,       610,
   69.2862,       645,
   69.3064,       616,
   69.3265,       630,
   69.3467,       572,
   69.3669,       622,
    69.387,       629,
   69.4072,       650,
   69.4274,       607,
   69.4475,       636,
   69.4677,       622,
   69.4879,       589,
    69.508,       630,
   69.5282,       599,
   69.5484,       622,
   69.5685,       593,
   69.5887,       617,
   69.6089,       617,
   69.6291,       625,
   69.6492,       626,
   69.6694,       629,
   69.6896,       635,
   69.7097,       625,
   69.7299,       586,
   69.7501,       608,
   69.7702,       652,
   69.7904,       586,
   69.8106,       628,
   69.8307,       673,
   69.8509,       625,
   69.8711,       595,
   69.8912,       597,
   69.9114,       616,
   69.9316,       576,
   69.9517,       604,
   69.9719,       628,
   69.9921,       624,
   70.0123,       581,
   70.0324,       588,
   70.0526,       620,
   70.0728,       598,
   70.0929,       615,
   70.1131,       613,
   70.1333,       568,
   70.1534,       663,
   70.1736,       640,
   70.1938,       584,
   70.2139,       635,
   70.2341,       627,
   70.2543,       613,
   70.2744,       609,
   70.2946,       616,
   70.3148,       573,
    70.335,       575,
   70.3551,       553,
   70.3753,       621,
   70.3955,       621,
   70.4156,       638,
   70.4358,       611,
    70.456,       589,
   70.4761,       610,
   70.4963,       659,
   70.5165,       646,
   70.5366,       607,
   70.5568,       629,
    70.577,       600,
   70.5971,       590,
   70.6173,       604,
   70.6375,       597,
   70.6576,       599,
   70.6778,       605,
    70.698,       633,
   70.7182,       591,
   70.7383,       643,
   70.7585,       622,
   70.7787,       624,
   70.7988,       714,
    70.819,       582,
   70.8392,       616,
   70.8593,       642,
   70.8795,       597,
   70.8997,       632,
   70.9198,       585,
     70.94,       637,
   70.9602,       619,
   70.9803,       617,
   71.0005,       630,
   71.0207,       582,
   71.0409,       620,
    71.061,       632,
   71.0812,       624,
   71.1014,       637,
   71.1215,       597,
   71.1417,       620,
   71.1619,       604,
    71.182,       645,
   71.2022,       589,
   71.2224,       607,
   71.2425,       598,
   71.2627,       586,
   71.2829,       634,
    71.303,       631,
   71.3232,       593,
   71.3434,       621,
   71.3635,       608,
   71.3837,       577,
   71.4039,       679,
   71.4241,       646,
   71.4442,       642,
   71.4644,       650,
   71.4846,       630,
   71.5047,       623,
   71.5249,       620,
   71.5451,       650,
   71.5652,       600,
   71.5854,       612,
   71.6056,       656,
   71.6257,       595,
   71.6459,       657,
   71.6661,       637,
   71.6862,       629,
   71.7064,       645,
   71.7266,       676,
   71.7467,       645,
   71.7669,       620,
   71.7871,       610,
   71.8073,       654,
   71.8274,       653,
   71.8476,       604,
   71.8678,       622,
   71.8879,       638,
   71.9081,       630,
   71.9283,       617,
   71.9484,       666,
   71.9686,       643,
   71.9888,       646,
   72.0089,       650,
   72.0291,       634,
   72.0493,       632,
   72.0694,       613,
   72.0896,       638,
   72.1098,       620,
     72.13,       592,
   72.1501,       619,
   72.1703,       649,
   72.1905,       650,
   72.2106,       597,
   72.2308,       666,
    72.251,       621,
   72.2711,       607,
   72.2913,       657,
   72.3115,       645,
   72.3316,       622,
   72.3518,       635,
    72.372,       631,
   72.3921,       629,
   72.4123,       617,
   72.4325,       646,
   72.4526,       587,
   72.4728,       683,
    72.493,       610,
   72.5132,       678,
   72.5333,       635,
   72.5535,       641,
   72.5737,       665,
   72.5938,       671,
    72.614,       673,
   72.6342,       649,
   72.6543,       642,
   72.6745,       625,
   72.6947,       653,
   72.7148,       670,
    72.735,       644,
   72.7552,       648,
   72.7753,       625,
   72.7955,       587,
   72.8157,       639,
   72.8358,       663,
    72.856,       633,
   72.8762,       648,
   72.8964,       640,
   72.9165,       613,
   72.9367,       586,
   72.9569,       612,
    72.977,       641,
   72.9972,       629,
   73.0174,       638,
   73.0375,       645,
   73.0577,       658,
   73.0779,       619,
    73.098,       730,
   73.1182,       619,
   73.1384,       674,
   73.1585,       669,
   73.1787,       638,
   73.1989,       685,
   73.2191,       668,
   73.2392,       611,
   73.2594,       667,
   73.2796,       645,
   73.2997,       626,
   73.3199,       627,
   73.3401,       642,
   73.3602,       664,
   73.3804,       655,
   73.4006,       652,
   73.4207,       648,
   73.4409,       621,
   73.4611,       669,
   73.4812,       631,
   73.5014,       666,
   73.5216,       655,
   73.5417,       674,
   73.5619,       666,
   73.5821,       704,
   73.6023,       707,
   73.6224,       647,
   73.6426,       653,
   73.6628,       652,
   73.6829,       709,
   73.7031,       700,
   73.7233,       711,
   73.7434,       678,
   73.7636,       751,
   73.7838,       792,
   73.8039,       826,
   73.8241,       813,
   73.8443,       812,
   73.8644,       817,
   73.8846,       846,
   73.9048,       921,
   73.9249,       878,
   73.9451,       857,
   73.9653,       895,
   73.9855,       902,
   74.0056,       953,
   74.0258,       927,
    74.046,      1024,
   74.0661,      1063,
   74.0863,      1151,
   74.1065,      1333,
   74.1266,      1617,
   74.1468,      1980,
    74.167,      2875,
   74.1871,      4405,
   74.2073,      7260,
   74.2275,     10787,
   74.2476,     12623,
   74.2678,     10487,
    74.288,      6956,
   74.3082,      4377,
   74.3283,      2929,
   74.3485,      2219,
   74.3687,      2142,
   74.3888,      2493,
    74.409,      3222,
   74.4292,      4884,
   74.4493,      6328,
   74.4695,      6416,
   74.4897,      5188,
   74.5098,      3467,
     74.53,      2294,
   74.5502,      1678,
   74.5703,      1390,
   74.5905,      1121,
   74.6107,      1048,
   74.6308,       954,
    74.651,       939,
   74.6712,       886,
   74.6914,       820,
   74.7115,       842,
   74.7317,       774,
   74.7519,       788,
    74.772,       728,
   74.7922,       698,
   74.8124,       693,
   74.8325,       711,
   74.8527,       695,
   74.8729,       654,
    74.893,       696,
   74.9132,       715,
   74.9334,       667,
   74.9535,       672,
   74.9737,       678,
   74.9939,       671,
    75.014,       667,
   75.0342,       685,
   75.0544,       679,
   75.0746,       714,
   75.0947,       652,
   75.1149,       666,
   75.1351,       658,
   75.1552,       672,
   75.1754,       663,
   75.1956,       601,
   75.2157,       638,
   75.2359,       649,
   75.2561,       683,
   75.2762,       679,
   75.2964,       682,
   75.3166,       642,
   75.3367,       646,
   75.3569,       630,
   75.3771,       651,
   75.3973,       651,
   75.4174,       625,
   75.4376,       654,
   75.4578,       637,
   75.4779,       635,
   75.4981,       658,
   75.5183,       639,
   75.5384,       602,
   75.5586,       654,
   75.5788,       683,
   75.5989,       619,
   75.6191,       595,
   75.6393,       669,
   75.6594,       687,
   75.6796,       613,
   75.6998,       660,
   75.7199,       618,
   75.7401,       642,
   75.7603,       677,
   75.7805,       595,
   75.8006,       692,
   75.8208,       671,
    75.841,       620,
   75.8611,       629,
   75.8813,       668,
   75.9015,       608,
   75.9216,       671,
   75.9418,       636,
    75.962,       646,
   75.9821,       654,
   76.0023,       615,
   76.0225,       658,
   76.0426,       656,
   76.0628,       652,
    76.083,       633,
   76.1032,       632,
   76.1233,       633,
   76.1435,       639,
   76.1637,       624,
   76.1838,       648,
    76.204,       658,
   76.2242,       634,
   76.2443,       621,
   76.2645,       681,
   76.2847,       656,
   76.3048,       574,
    76.325,       589,
   76.3452,       607,
   76.3653,       630,
   76.3855,       625,
   76.4057,       628,
   76.4258,       615,
    76.446,       640,
   76.4662,       614,
   76.4864,       612,
   76.5065,       626,
   76.5267,       646,
   76.5469,       590,
    76.567,       607,
   76.5872,       629,
   76.6074,       635,
   76.6275,       635,
   76.6477,       618,
   76.6679,       633,
    76.688,       631,
   76.7082,       612,
   76.7284,       662,
   76.7485,       639,
   76.7687,       654,
   76.7889,       607,
    76.809,       647,
   76.8292,       634,
   76.8494,       653,
   76.8696,       670,
   76.8897,       604,
   76.9099,       660,
   76.9301,       618,
   76.9502,       599,
   76.9704,       604,
   76.9906,       611,
   77.0107,       638,
   77.0309,       649,
   77.0511,       631,
   77.0712,       613,
   77.0914,       610,
   77.1116,       651,
   77.1317,       608,
   77.1519,       593,
   77.1721,       650,
   77.1923,       618,
   77.2124,       627,
   77.2326,       621,
   77.2528,       662,
   77.2729,       596,
   77.2931,       605,
   77.3133,       619,
   77.3334,       639,
   77.3536,       629,
   77.3738,       638,
   77.3939,       600,
   77.4141,       619,
   77.4343,       660,
   77.4544,       617,
   77.4746,       654,
   77.4948,       658,
   77.5149,       619,
   77.5351,       617,
   77.5553,       601,
   77.5755,       612,
   77.5956,       615,
   77.6158,       641,
    77.636,       619,
   77.6561,       649,
   77.6763,       651,
   77.6965,       629,
   77.7166,       579,
   77.7368,       605,
    77.757,       653,
   77.7771,       639,
   77.7973,       667,
   77.8175,       632,
   77.8376,       591,
   77.8578,       592,
    77.878,       605,
   77.8981,       607,
   77.9183,       668,
   77.9385,       631,
   77.9587,       606,
   77.9788,       653,
    77.999,       606,
