;RAW4.00
[RawHeader]
Date=11/26/2025
EstimatedTotalTime=426.6
FurtherDQLReading=0
HardwareIndicator=65519
MeasuredTotalTime=4.29563
MeasurementFlag=1
NumberOfMeasuredRanges=1
NumberOfRanges=1
Time=13:29:36

[VarInfo]
Type=USER
Flags=0
Value=Lab Manager

[VarInfo]
Type=SAMPLEID
Flags=0
Value=Commander Sample ID

[VarInfo]
Type=COMMENT
Flags=0
Value=

[VarInfo]
Type=UTF
Flags=0
Value=

[VarInfo]
Type=CREATOR
Flags=0
Value=V5Converter

[VarInfo]
Type=CREATOR_VERSION
Flags=0
Value=4.4.16.0

[HardwareConfiguration]
AbsorptionFactor=9999
ActivateAbsorber=0
Alpha1=1.5406
Alpha2=1.54439
AlphaAverage=1.54184
AlphaRatio=0.5
Analyzer=0
Anode=Cu
AntiScatteringSlit=9999
BeamOpticsFlags=0
Beta=1.39222
BetaRelativeIntensity=0
DeactivateAbsorber=0
DetectorSlit=9999
DivergenceSlit=9999
GoniometerControl=0
GoniometerDiameter=282
GoniometerModel=256
GoniometerStage=7
Monochromator=0
NearSampleSlit=9999
PrimarySollerSlit=9999
SampleChanger=0
SecondSollerSlit=9999
SynchronousAxis=0
ThinFilmAttachment=9999
WaveUnit=A

[RangeHeader]
ActuallyUsedLambda=1.54184
AdditionalDetectorMask=257
DataRecordLength=4
DelayTime=0
DisplayPlaneNumber=0
EstimatedScanTime=427
ExtraParametersMask=0
GeneratorCurrent=10
GeneratorVoltage=30
Increment=0.0201685
Increment3=0
NumberOfCompletedData=1885
NumberOfCounts=1
NumberOfDetectors=0
NumberOfDrives=3
NumberOfEncoderDrives=0
NumberOfMeasuredData=1885
NumberOfVaryingParameters=0
RangeStartTime=0
RotationSpeed=0
ScanMode=1
ScanType=Locked Coupled
SimulatedMeasConditions=0
SlitChangerIn=0
SmootingWidth=0
Start=40.0015
Steps=1885
SynchronousRotation=0
Time=33

[VarInfo]
Type=PSD_DISCRIM
Flags=0
Value=0.11;0.5

[VarInfo]
Type=OPTICS_V5
Flags=0
Value=H4sIAAAAAAAEAO1d63KjOhJ+Fda/zqmtBIPtXKaITzm2J+OaOHbFTnKmtrZcBORYZzC4AOey//d99hl2X2x1QViIS8C3JBN+TCaodWm6+2vUUkfS/nieW9IjcD3o2GcV5bBakYBtOCa0H84qS396oBxV/mhqF44NnTnwgdt25gvHBrbf0X1dQq1t78uzB88qM99ffJHlp6enw6faoeM+yGq1qsh/9i9HxgzM9QNoe75uG6AStjJfb1WRbqEH7y1wpc/BWWXFR0joAM9w4cInL/Bj4UHLsSW+3oXrLBc9NBZ6t3Pgojcb3P8FDH+o+7OzitwBj9AAMt+CrxUfl1Lblu55QRehTORzoM8XqLDt2L4ObeBy/coBc6yHluEvdYtxoR6o1ePT02O5h8TkLue4tzhrTW2EZGjqqBswQr3oFvyXjl+9OdUtD2hyGln7c259hcAyrwHqHhq4EDFpA/KbJ8lNjfKD1ToCFipvdm00JDA1OUbR6Btwou9Ab2HpL824AjQ5tXK8m+bF4OrHhPzodEft64TGrBVWDOsoPhpP1bBWhrxWvISy1r0hIUP+4r8skMLHrm78xG8sGODQhXPdfSHkZBMMakgD9GxISBvSeHkPOIFIQeOidilHx44baRI9r5mSRmyEDSxUYBJZ3blu/xy4JnCvAfYzAL0wsdX3b8s5NVnMwIfj6+8T9KPV/l7IxHm5Jhp5z0OvBh9BE+kGCS98DAk920dCZMIVSikeHA9SJulgmhwp1bAq2ZMXfZT4B2LSAxc+QFu3ogSlwl6OWi7Ssb/0moPwnSLFGmsYPPedJdIj0qJQrgWE0MJ5JCOdEXICmjFtjmnJUA7J0tRxpRHQLUBtYA3AytxYcejGiMm4JZa46kmmLG0LrhEWBa3xcus++8A2MZDfDYZpCWdMkQKtj5nwHfcltGVFk+OFGseMJxH2qHoYWND7cnJosmJN5ku1uCnh1+H65qyTKx3Y545jAR1NEG5s6BPpdiDSG56bXcI59IlYwiKvWdVk7knrgKm+tPxb3VoCboigVyQ96CPXTshnFewlKri/oQta5l9LD8GnYEuZYx67mbHTJoqe6ZblPK0cjVCOarZnwPgJzFUVVqC1ESPOHKsWvx33pNH5Zl7erhEyxkg2xVq1lr7TdoHug6HrLIDrvzAWEyiR9/eIRfdMhLKr5fweuE21rslCEdaQRS08UPF//xMyUSUc9B0TNG8Quqbos4xMnTwz90Y+PzEHluy7tuWt5HgP/ND5vNXOHBXjLvaN2aNbYuh5A79Evm3IJvErCL6JJ23LP418rD3OPSHRTOHDEjnla/gw85sIdabECnU0BoKwUKWYS+vrz5fAfvBnTbXRwKJhj2nOjrJISkNktZevObqMVm/q5DL4SnFwGS02cm5pFninPwKqkpa1mOmKYIUieVuWOJh2nCVqyWzxf//ehzWm2Nxw9uJBQ7dIeQJnTA/KYaNePXrNFtfo7ca2MPfItOjcf/WMZelYS+paugfVBtErK9H60Ibz5bx5oBwenx4fndaUWv3kSK0pjePu32vVE4S4oAZGIvklvWZQ4W0Rs4b0UpC0Rk/7QJiajTD10yOsXjvdJsRYdyXGNhLfFkDGuto1yh6Bqz+IoV6M/ulxppzUt4kz1l2Js43EtwWcsa52jLNz4OupIMPET46w2qmqqttD2Kq7EmEbiW9jhK262jHCrvGaRirECHVXGHuvCFutth02NsJWrKMSVWsKbh08xTrZCZK+OsbSG7gQ2D5ZHRSgJJK3tspG1g4H057tH9XfH6CibEVXr/OjKbkXhfRCBYDfqOeDOWLs0nmABl3VvJn0rm5bl73OpP2tN9TkFYkJfAye/WbPftQtiMQzg4uVjCJaIvW07+CFjI1lEf6uyTEWsnm67F2lsnIJbSARW0kbWtlk6OEgY+yhA20/e3B1k8GZLoaD0auqCHeKD6S58wgk35HmwJjpNrYKCTmTxd/SeKxl8/ienF2WXefzdFk9bOTm6N5Lz546UqiqhAVciZbr3FOQY3BWIVUkVBrdJr+ZtC6H31rRcrGRhEeyyEjkXXKxo0bYURPZUVPYUbPYUQuzEywL8PxEyoQBQloib5PW7UUWe0HrokySmCrg8D78PeybkkWGzrvjVjIvuH4+FiIbUQEDqBXeyxN46LJSkY3uZbffvRqnSMV2TCAFbaXVSDlkQmfBvNq4EkHsASVZZdetcW+QpTTSOp+8YlOLgL9pYnk4ToQicvl10J4MrpMZJONJkeZyfMe6Ed+xvgA2skTfcYU8TFacvPmcsQFLZ8dr7r82tXQiP3O7dSw/voYXlO4q5vl5u6WEjcypLxqFfRNqVSHyCL4FKaFHctihVBMCjFp1f7FErbF+MBEXRsEvZLo55TW19tJ1sT+LmlpQuitTm7f2YWpolHD6sQ1TaySFsh/E0uKy2LulDZ0nkgHOmxQp25WV3aUEnW+xcHMnRJr5lluqhymm+EkWW+4491hde7Ul3ssWbV9+7YtfJA0UTQyNGXBfyVbbPA8ud74bklUw60j9YgWfilQ/I4dzraYmBmuZ2QhiKJW9qxqLdLI3h6IxR/YytzAXT1vD42MIIXVJnC4nR8cylyaJ7OZRhxZeJcCPHu2eWH2ZQFkmUJYJlGUCZZlA+fE2xcsEyvezJV4mUP6aCCsTKN8TxsoEyl8VZ2UC5XvCWZlA+ashrEygfE8IKxMoywTKMoGyTKAsEyjLBMoygbJMoCwTKMsEyjKBskygLBMoywTKMoGyTKAsEyjLBMoygbJMoHzr+KNMoCwTKD9tAiXLkUS/iumT7KzT+Cmg4tm7GScqd+cL/4UkG4arGcVOT+72h4PRhP4scnoyGTg0xcTzk2U+BzLzcGMl7XBjde+HGw8WbefceR5MR45lATfhiGNKyDjkmKsg/WbotmTQQ8ElNJZEifQE7N/XgX9k+LhXSSBnuYaE6hunwkb7FPSZfOxxRGTIPPKL8PePe2KymphYK0bAR+scevtxXAin6Q2diJrmRGpv50S+wmdgEkNlcw/RmVjQz3IliCz1U2CAaRv4kdXICV5EJGb6ELHy5h6E61FQZYr/YA2o98gntQ/sOmq5XMfxeudlE7OmVzSsTJpYMhZe0hcRy1SR/jGf/zPDjH/DR/7fA2QfErQ9hAVgol98R9I5hWWaMq5mhBds4KeJUp0oaQYcIb5mwIVtN52ZmPP5qH/5US30lx930PRnYm4HLtvZktP8/WxBxzgL44DNsuvjPeVdZqh+7nWGuODWWWeI97KTtI5vABumgB1a+LnBszXslNBZz+i3gpzt3wSirjOzGenzhQXuZgBYY/QC/KUgIkkjH65UJ0ChmfamMj+F+lCxGJtFbxiJ1dIisfpGkRjhMR6HvT9h3thLD5hkeHHgLInKwm1g17oJl16CldWVYB+fXrg3mE494KdZfesZevz3Iay2B1ceYybnbh1ywVU1LSlVPTypn6qNRkNN8LvHjcOTRv24dqQqvK8VhNAM7mETbitc+w7DEUCRgJl9i2FYh7v9roNCXwNnMmzhLkORh4SYKLFGsfsMwz42ifVFRj70nYaF9FrM/4zwzYaj4jcbRuW787sNw+F2cbvhyRss3uHlOks3wMyxzMQtgMsX+xm8pBxzcfnj6s/ujy654bCjSsOZ7olX4OYEsRyOEwezQMpa3mDWKOO8X3k4Wj2jProvYAvX6KYzLmrzl7v28CTPUlxNiU9Yi8wL0ecUu0XdWrmWfniNJk2pxn6HJHazGl4xZ9PpjyfkXwFHw4ba6R6gstmscZebgP09bgIKCIswkLYN2N/zNmAmj6JSs3YC+59rJ1Cp53Ii1c+wFVhGSkUjpbRAqXF4dHrSUJRqPWmBqqEcHldP68dqfQeB0sontAHGieA9hcKI4+SmzLSadMAw70kjnLfkkW8dVkPLMIDnOS4E3hoRE+Mi7j2jlLwRUvyl1/ekrIcPHRqtqcpiLudicNWekB9FHA7lZ+eh0Ri4qHQnkdHp3mdFwxkkShPAfO0EGXBRYgTUqKlErdE1Wb0CGJXZGHSdNqGDKCsJ1TJnP6vqMuJUZpxuDuAUxgVFpsREEgUYMFu+rxszPNBZ5WDPRwluc5pzmitr4SQ+y+l5TBQhKMMCjfMcZLfIWj48ALPjYkzSv8ZE3eHvWs9sIu2S3oNHTCEVRwtgwGnwt6KsUpyC4BLvvcgEK46DYs5u+K03mpAfRZxdFKHbnGBVi0yvQisOP5lEYfRDEPwf22IqXU7pckqXI7qcECvsd+8VLsZPznhGTjB6jZVIzZz8ZA+dc9yig6ZEJvFifFQxXo8YAd9H0PIkfi6GHAXNPKxILbzB7vVR6AbplI5NtLGOuVT/5i2e1Rn4EFu+VFtBkewhB6uqmiyUa3yqI/WAkWUTj/6JxSqYYK6D6Pv/u9RXv2COAAA=

[PSD]
ActualTwoTheta=9999
FirstUsedChannel=0
FixedPSD=0
PSDOpening=4.99171
PSDType=5

[Drive]
DriveFlags=1
DriveName=2Theta
DriveNumber=2
DriveOffset=0
OffsetIndex=0
OscillationAmplitude=0
OscillationSpeed=0
StartPosition=40.0015

[Drive]
DriveFlags=1
DriveName=Theta
DriveNumber=1
DriveOffset=0
OffsetIndex=0
OscillationAmplitude=0
OscillationSpeed=0
StartPosition=20.0007

[Drive]
DriveFlags=1
DriveName=Phi
DriveNumber=3
DriveOffset=0
OffsetIndex=0
OscillationAmplitude=0
OscillationSpeed=0
StartPosition=0

[Data]
     Angle,       PSD,
   40.0015,       647,
   40.0217,       671,
   40.0418,       695,
    40.062,       620,
   40.0822,       651,
   40.1023,       636,
   40.1225,       673,
   40.1427,       652,
   40.1628,       597,
    40.183,       637,
   40.2032,       646,
   40.2233,       647,
   40.2435,       652,
   40.2637,       664,
   40.2838,       603,
    40.304,       620,
   40.3242,       632,
   40.3444,       596,
   40.3645,       597,
   40.3847,       632,
   40.4049,       580,
    40.425,       646,
   40.4452,       614,
   40.4654,       665,
   40.4855,       600,
   40.5057,       620,
   40.5259,       623,
    40.546,       620,
   40.5662,       596,
   40.5864,       603,
   40.6065,       616,
   40.6267,       628,
   40.6469,       646,
   40.6671,       647,
   40.6872,       591,
   40.7074,       592,
   40.7276,       607,
   40.7477,       652,
   40.7679,       680,
   40.7881,       638,
   40.8082,       673,
   40.8284,       607,
   40.8486,       654,
   40.8687,       643,
   40.8889,       583,
   40.9091,       650,
   40.9292,       615,
   40.9494,       611,
   40.9696,       633,
   40.9897,       638,
   41.0099,       655,
   41.0301,       635,
   41.0503,       587,
   41.0704,       648,
   41.0906,       595,
   41.1108,       652,
   41.1309,       604,
   41.1511,       620,
   41.1713,       657,
   41.1914,       641,
   41.2116,       603,
   41.2318,       657,
   41.2519,       581,
   41.2721,       599,
   41.2923,       632,
   41.3124,       622,
   41.3326,       648,
   41.3528,       649,
   41.3729,       623,
   41.3931,       661,
   41.4133,       627,
   41.4335,       621,
   41.4536,       641,
   41.4738,       630,
    41.494,       648,
   41.5141,       623,
   41.5343,       690,
   41.5545,       587,
   41.5746,       668,
   41.5948,       618,
    41.615,       656,
   41.6351,       692,
   41.6553,       654,
   41.6755,       686,
   41.6956,       675,
   41.7158,       654,
    41.736,       676,
   41.7562,       703,
   41.7763,       769,
   41.7965,       767,
   41.8167,       762,
   41.8368,       754,
    41.857,       780,
   41.8772,       737,
   41.8973,       774,
   41.9175,       746,
   41.9377,       758,
   41.9578,       776,
    41.978,       740,
   41.9982,       739,
   42.0183,       786,
   42.0385,       770,
   42.0587,       781,
   42.0788,       760,
    42.099,       710,
   42.1192,       770,
   42.1394,       751,
   42.1595,       734,
   42.1797,       763,
   42.1999,       794,
     42.22,       778,
   42.2402,       757,
   42.2604,       695,
   42.2805,       792,
   42.3007,       781,
   42.3209,       761,
    42.341,       777,
   42.3612,       718,
   42.3814,       708,
   42.4015,       758,
   42.4217,       780,
   42.4419,       805,
    42.462,       783,
   42.4822,       744,
   42.5024,       771,
   42.5226,       810,
   42.5427,       807,
   42.5629,       825,
   42.5831,       767,
   42.6032,       815,
   42.6234,       776,
   42.6436,       793,
   42.6637,       804,
   42.6839,       820,
   42.7041,       812,
   42.7242,       826,
   42.7444,       851,
   42.7646,       846,
   42.7847,       875,
   42.8049,       842,
   42.8251,       934,
   42.8453,       950,
   42.8654,      1008,
   42.8856,      1058,
   42.9058,      1109,
   42.9259,      1116,
   42.9461,      1180,
   42.9663,      1261,
   42.9864,      1249,
   43.0066,      1304,
   43.0268,      1388,
   43.0469,      1468,
   43.0671,      1631,
   43.0873,      1888,
   43.1074,      2094,
   43.1276,      2263,
   43.1478,      2260,
   43.1679,      2452,
   43.1881,      2848,
   43.2083,      3724,
   43.2285,      5446,
   43.2486,      9953,
   43.2688,     23378,
    43.289,     49468,
   43.3091,     64551,
   43.3293,     43044,
   43.3495,     19237,
   43.3696,     13324,
   43.3898,     19591,
     43.41,     31244,
   43.4301,     30819,
   43.4503,     16918,
   43.4705,      7457,
   43.4906,      4119,
   43.5108,      3087,
    43.531,      2524,
   43.5511,      2125,
   43.5713,      1888,
   43.5915,      1799,
   43.6117,      1626,
   43.6318,      1474,
    43.652,      1309,
   43.6722,      1261,
   43.6923,      1174,
   43.7125,      1176,
   43.7327,      1064,
   43.7528,      1040,
    43.773,       962,
   43.7932,       899,
   43.8133,       912,
   43.8335,       876,
   43.8537,       844,
   43.8738,       865,
    43.894,       868,
   43.9142,       858,
   43.9344,       866,
   43.9545,       806,
   43.9747,       811,
   43.9949,       738,
    44.015,       771,
   44.0352,       797,
   44.0554,       773,
   44.0755,       773,
   44.0957,       774,
   44.1159,       784,
    44.136,       777,
   44.1562,       789,
   44.1764,       782,
   44.1965,       732,
   44.2167,       770,
   44.2369,       755,
    44.257,       764,
   44.2772,       784,
   44.2974,       770,
   44.3176,       739,
   44.3377,       753,
   44.3579,       768,
   44.3781,       711,
   44.3982,       748,
   44.4184,       764,
   44.4386,       718,
   44.4587,       754,
   44.4789,       796,
   44.4991,       783,
   44.5192,       730,
   44.5394,       727,
   44.5596,       759,
   44.5797,       766,
   44.5999,       724,
   44.6201,       706,
   44.6402,       770,
   44.6604,       691,
   44.6806,       762,
   44.7008,       776,
   44.7209,       695,
   44.7411,       698,
   44.7613,       705,
   44.7814,       708,
   44.8016,       725,
   44.8218,       706,
   44.8419,       730,
   44.8621,       749,
   44.8823,       721,
   44.9024,       763,
   44.9226,       699,
   44.9428,       698,
   44.9629,       685,
   44.9831,       731,
   45.0033,       729,
   45.0235,       705,
   45.0436,       712,
   45.0638,       672,
    45.084,       754,
   45.1041,       712,
   45.1243,       737,
   45.1445,       702,
   45.1646,       753,
   45.1848,       695,
    45.205,       724,
   45.2251,       708,
   45.2453,       733,
   45.2655,       755,
   45.2856,       754,
   45.3058,       782,
    45.326,       755,
   45.3461,       707,
   45.3663,       704,
   45.3865,       642,
   45.4067,       701,
   45.4268,       701,
    45.447,       680,
   45.4672,       668,
   45.4873,       713,
   45.5075,       658,
   45.5277,       724,
   45.5478,       647,
    45.568,       721,
   45.5882,       772,
   45.6083,       700,
   45.6285,       667,
   45.6487,       673,
   45.6688,       643,
    45.689,       729,
   45.7092,       683,
   45.7294,       699,
   45.7495,       696,
   45.7697,       675,
   45.7899,       708,
     45.81,       710,
   45.8302,       740,
   45.8504,       670,
   45.8705,       693,
   45.8907,       714,
   45.9109,       662,
    45.931,       720,
   45.9512,       692,
   45.9714,       701,
   45.9915,       644,
   46.0117,       661,
   46.0319,       666,
    46.052,       724,
   46.0722,       674,
   46.0924,       678,
   46.1126,       719,
   46.1327,       687,
   46.1529,       718,
   46.1731,       721,
   46.1932,       705,
   46.2134,       703,
   46.2336,       688,
   46.2537,       674,
   46.2739,       673,
   46.2941,       666,
   46.3142,       696,
   46.3344,       690,
   46.3546,       704,
   46.3747,       660,
   46.3949,       692,
   46.4151,       627,
   46.4352,       762,
   46.4554,       634,
   46.4756,       694,
   46.4958,       690,
   46.5159,       711,
   46.5361,       675,
   46.5563,       673,
   46.5764,       687,
   46.5966,       698,
   46.6168,       689,
   46.6369,       672,
   46.6571,       652,
   46.6773,       685,
   46.6974,       668,
   46.7176,       700,
   46.7378,       646,
   46.7579,       690,
   46.7781,       667,
   46.7983,       732,
   46.8185,       667,
   46.8386,       675,
   46.8588,       682,
    46.879,       645,
   46.8991,       689,
   46.9193,       696,
   46.9395,       657,
   46.9596,       666,
   46.9798,       676,
        47,       691,
   47.0201,       648,
   47.0403,       674,
   47.0605,       685,
   47.0806,       710,
   47.1008,       695,
    47.121,       670,
   47.1411,       689,
   47.1613,       662,
   47.1815,       682,
   47.2017,       751,
   47.2218,       683,
    47.242,       674,
   47.2622,       671,
   47.2823,       690,
   47.3025,       686,
   47.3227,       710,
   47.3428,       636,
    47.363,       670,
   47.3832,       683,
   47.4033,       652,
   47.4235,       709,
   47.4437,       622,
   47.4638,       669,
    47.484,       695,
   47.5042,       673,
   47.5243,       652,
   47.5445,       660,
   47.5647,       655,
   47.5849,       697,
    47.605,       630,
   47.6252,       683,
   47.6454,       688,
   47.6655,       641,
   47.6857,       671,
   47.7059,       699,
    47.726,       672,
   47.7462,       680,
   47.7664,       666,
   47.7865,       644,
   47.8067,       659,
   47.8269,       654,
    47.847,       688,
   47.8672,       675,
   47.8874,       708,
   47.9076,       649,
   47.9277,       668,
   47.9479,       623,
   47.9681,       688,
   47.9882,       666,
   48.0084,       708,
   48.0286,       639,
   48.0487,       665,
   48.0689,       674,
   48.0891,       724,
   48.1092,       660,
   48.1294,       670,
   48.1496,       656,
   48.1697,       653,
   48.1899,       685,
   48.2101,       671,
   48.2302,       711,
   48.2504,       687,
   48.2706,       671,
   48.2908,       717,
   48.3109,       713,
   48.3311,       690,
   48.3513,       672,
   48.3714,       649,
   48.3916,       718,
   48.4118,       663,
   48.4319,       712,
   48.4521,       688,
   48.4723,       615,
   48.4924,       693,
   48.5126,       701,
   48.5328,       636,
   48.5529,       689,
   48.5731,       682,
   48.5933,       641,
   48.6134,       699,
   48.6336,       673,
   48.6538,       687,
    48.674,       704,
   48.6941,       715,
   48.7143,       702,
   48.7345,       670,
   48.7546,       707,
   48.7748,       690,
    48.795,       703,
   48.8151,       706,
   48.8353,       714,
   48.8555,       684,
   48.8756,       709,
   48.8958,       683,
    48.916,       678,
   48.9361,       711,
   48.9563,       761,
   48.9765,       710,
   48.9967,       729,
   49.0168,       667,
    49.037,       692,
   49.0572,       666,
   49.0773,       718,
   49.0975,       677,
   49.1177,       738,
   49.1378,       678,
    49.158,       646,
   49.1782,       728,
   49.1983,       705,
   49.2185,       651,
   49.2387,       659,
   49.2588,       714,
    49.279,       680,
   49.2992,       705,
   49.3193,       674,
   49.3395,       660,
   49.3597,       676,
   49.3799,       698,
      49.4,       660,
   49.4202,       709,
   49.4404,       703,
   49.4605,       699,
   49.4807,       687,
   49.5009,       740,
    49.521,       695,
   49.5412,       695,
   49.5614,       674,
   49.5815,       716,
   49.6017,       667,
   49.6219,       708,
    49.642,       691,
   49.6622,       748,
   49.6824,       685,
   49.7025,       676,
   49.7227,       725,
   49.7429,       683,
   49.7631,       673,
   49.7832,       708,
   49.8034,       755,
   49.8236,       706,
   49.8437,       749,
   49.8639,       692,
   49.8841,       752,
   49.9042,       728,
   49.9244,       725,
   49.9446,       748,
   49.9647,       811,
   49.9849,       757,
   50.0051,       817,
   50.0252,       828,
   50.0454,       871,
   50.0656,       832,
   50.0858,       858,
   50.1059,       834,
   50.1261,       913,
   50.1463,       936,
   50.1664,       951,
   50.1866,      1050,
   50.2068,      1046,
   50.2269,      1120,
   50.2471,      1147,
   50.2673,      1191,
   50.2874,      1314,
   50.3076,      1474,
   50.3278,      1776,
   50.3479,      2291,
   50.3681,      3367,
   50.3883,      5215,
   50.4084,      8740,
   50.4286,     12579,
   50.4488,     12947,
    50.469,      9489,
   50.4891,      6014,
   50.5093,      4404,
   50.5295,      4752,
   50.5496,      6093,
   50.5698,      7389,
     50.59,      6626,
   50.6101,      4583,
   50.6303,      2966,
   50.6505,      2027,
   50.6706,      1570,
   50.6908,      1326,
    50.711,      1174,
   50.7311,      1132,
   50.7513,      1047,
   50.7715,       966,
   50.7917,       928,
   50.8118,       853,
    50.832,       914,
   50.8522,       762,
   50.8723,       788,
   50.8925,       820,
   50.9127,       743,
   50.9328,       728,
    50.953,       742,
   50.9732,       734,
   50.9933,       695,
   51.0135,       722,
   51.0337,       734,
   51.0538,       716,
    51.074,       723,
   51.0942,       723,
   51.1143,       748,
   51.1345,       688,
   51.1547,       679,
   51.1749,       702,
    51.195,       641,
   51.2152,       725,
   51.2354,       744,
   51.2555,       668,
   51.2757,       704,
   51.2959,       727,
    51.316,       694,
   51.3362,       707,
   51.3564,       664,
   51.3765,       679,
   51.3967,       673,
   51.4169,       702,
    51.437,       660,
   51.4572,       703,
   51.4774,       703,
   51.4975,       667,
   51.5177,       655,
   51.5379,       666,
   51.5581,       634,
   51.5782,       679,
   51.5984,       697,
   51.6186,       693,
   51.6387,       659,
   51.6589,       697,
   51.6791,       696,
   51.6992,       662,
   51.7194,       674,
   51.7396,       646,
   51.7597,       655,
   51.7799,       676,
   51.8001,       695,
   51.8202,       638,
   51.8404,       686,
   51.8606,       651,
   51.8808,       626,
   51.9009,       641,
   51.9211,       640,
   51.9413,       680,
   51.9614,       665,
   51.9816,       638,
   52.0018,       653,
   52.0219,       617,
   52.0421,       648,
   52.0623,       636,
   52.0824,       637,
   52.1026,       651,
   52.1228,       653,
   52.1429,       638,
   52.1631,       615,
   52.1833,       686,
   52.2034,       643,
   52.2236,       660,
   52.2438,       667,
    52.264,       690,
   52.2841,       678,
   52.3043,       661,
   52.3245,       653,
   52.3446,       647,
   52.3648,       603,
    52.385,       690,
   52.4051,       599,
   52.4253,       697,
   52.4455,       670,
   52.4656,       637,
   52.4858,       599,
    52.506,       675,
   52.5261,       648,
   52.5463,       690,
   52.5665,       686,
   52.5866,       654,
   52.6068,       627,
    52.627,       629,
   52.6472,       665,
   52.6673,       664,
   52.6875,       674,
   52.7077,       656,
   52.7278,       663,
    52.748,       617,
   52.7682,       653,
   52.7883,       677,
   52.8085,       670,
   52.8287,       649,
   52.8488,       680,
    52.869,       662,
   52.8892,       716,
   52.9093,       656,
   52.9295,       631,
   52.9497,       652,
   52.9699,       617,
     52.99,       683,
   53.0102,       665,
   53.0304,       673,
   53.0505,       661,
   53.0707,       685,
   53.0909,       717,
    53.111,       631,
   53.1312,       611,
   53.1514,       646,
   53.1715,       637,
   53.1917,       650,
   53.2119,       627,
    53.232,       686,
   53.2522,       619,
   53.2724,       631,
   53.2925,       712,
   53.3127,       658,
   53.3329,       621,
   53.3531,       664,
   53.3732,       647,
   53.3934,       646,
   53.4136,       644,
   53.4337,       654,
   53.4539,       622,
   53.4741,       600,
   53.4942,       647,
   53.5144,       655,
   53.5346,       650,
   53.5547,       642,
   53.5749,       613,
   53.5951,       634,
   53.6152,       617,
   53.6354,       666,
   53.6556,       626,
   53.6757,       620,
   53.6959,       613,
   53.7161,       632,
   53.7363,       669,
   53.7564,       603,
   53.7766,       659,
   53.7968,       619,
   53.8169,       667,
   53.8371,       633,
   53.8573,       610,
   53.8774,       640,
   53.8976,       639,
   53.9178,       613,
   53.9379,       646,
   53.9581,       618,
   53.9783,       646,
   53.9984,       599,
   54.0186,       645,
   54.0388,       589,
    54.059,       594,
   54.0791,       623,
   54.0993,       641,
   54.1195,       650,
   54.1396,       628,
   54.1598,       636,
     54.18,       612,
   54.2001,       657,
   54.2203,       668,
   54.2405,       684,
   54.2606,       645,
   54.2808,       568,
    54.301,       600,
   54.3211,       618,
   54.3413,       632,
   54.3615,       648,
   54.3816,       689,
   54.4018,       702,
    54.422,       653,
   54.4422,       662,
   54.4623,       638,
   54.4825,       631,
   54.5027,       661,
   54.5228,       617,
    54.543,       600,
   54.5632,       610,
   54.5833,       610,
   54.6035,       628,
   54.6237,       670,
   54.6438,       715,
    54.664,       653,
   54.6842,       608,
   54.7043,       663,
   54.7245,       634,
   54.7447,       619,
   54.7648,       619,
    54.785,       672,
   54.8052,       614,
   54.8254,       602,
   54.8455,       626,
   54.8657,       651,
   54.8859,       613,
    54.906,       650,
   54.9262,       636,
   54.9464,       629,
   54.9665,       642,
   54.9867,       637,
   55.0069,       641,
    55.027,       648,
   55.0472,       616,
   55.0674,       665,
   55.0875,       623,
   55.1077,       626,
   55.1279,       610,
   55.1481,       623,
   55.1682,       674,
   55.1884,       649,
   55.2086,       665,
   55.2287,       662,
   55.2489,       671,
   55.2691,       676,
   55.2892,       645,
   55.3094,       633,
   55.3296,       639,
   55.3497,       607,
   55.3699,       612,
   55.3901,       630,
   55.4102,       647,
   55.4304,       661,
   55.4506,       625,
   55.4707,       633,
   55.4909,       613,
   55.5111,       651,
   55.5313,       577,
   55.5514,       676,
   55.5716,       594,
   55.5918,       610,
   55.6119,       627,
   55.6321,       648,
   55.6523,       620,
   55.6724,       622,
   55.6926,       645,
   55.7128,       649,
   55.7329,       633,
   55.7531,       647,
   55.7733,       635,
   55.7934,       683,
   55.8136,       652,
   55.8338,       613,
    55.854,       610,
   55.8741,       603,
   55.8943,       606,
   55.9145,       679,
   55.9346,       619,
   55.9548,       602,
    55.975,       603,
   55.9951,       597,
   56.0153,       589,
   56.0355,       666,
   56.0556,       646,
   56.0758,       614,
    56.096,       602,
   56.1161,       593,
   56.1363,       645,
   56.1565,       637,
   56.1766,       669,
   56.1968,       649,
    56.217,       594,
   56.2372,       654,
   56.2573,       614,
   56.2775,       638,
   56.2977,       615,
   56.3178,       648,
    56.338,       633,
   56.3582,       648,
   56.3783,       634,
   56.3985,       632,
   56.4187,       648,
   56.4388,       611,
    56.459,       623,
   56.4792,       602,
   56.4993,       606,
   56.5195,       632,
   56.5397,       621,
   56.5598,       623,
     56.58,       572,
   56.6002,       619,
   56.6204,       646,
   56.6405,       646,
   56.6607,       611,
   56.6809,       630,
    56.701,       617,
   56.7212,       576,
   56.7414,       606,
   56.7615,       646,
   56.7817,       622,
   56.8019,       653,
    56.822,       610,
   56.8422,       613,
   56.8624,       619,
   56.8825,       644,
   56.9027,       613,
   56.9229,       633,
   56.9431,       630,
   56.9632,       577,
   56.9834,       639,
   57.0036,       657,
   57.0237,       632,
   57.0439,       590,
   57.0641,       634,
   57.0842,       595,
   57.1044,       592,
   57.1246,       608,
   57.1447,       657,
   57.1649,       626,
   57.1851,       605,
   57.2052,       639,
   57.2254,       647,
   57.2456,       594,
   57.2657,       625,
   57.2859,       619,
   57.3061,       617,
   57.3263,       651,
   57.3464,       613,
   57.3666,       583,
   57.3868,       626,
   57.4069,       581,
   57.4271,       662,
   57.4473,       619,
   57.4674,       604,
   57.4876,       630,
   57.5078,       583,
   57.5279,       638,
   57.5481,       617,
   57.5683,       651,
   57.5884,       619,
   57.6086,       647,
   57.6288,       602,
   57.6489,       601,
   57.6691,       586,
   57.6893,       611,
   57.7095,       578,
   57.7296,       669,
   57.7498,       587,
     57.77,       666,
   57.7901,       593,
   57.8103,       568,
   57.8305,       614,
   57.8506,       648,
   57.8708,       633,
    57.891,       627,
   57.9111,       571,
   57.9313,       622,
   57.9515,       618,
   57.9716,       602,
   57.9918,       619,
    58.012,       631,
   58.0322,       599,
   58.0523,       611,
   58.0725,       640,
   58.0927,       660,
   58.1128,       608,
    58.133,       643,
   58.1532,       607,
   58.1733,       586,
   58.1935,       610,
   58.2137,       620,
   58.2338,       624,
    58.254,       614,
   58.2742,       652,
   58.2943,       601,
   58.3145,       636,
   58.3347,       642,
   58.3548,       622,
    58.375,       635,
   58.3952,       616,
   58.4154,       610,
   58.4355,       615,
   58.4557,       607,
   58.4759,       561,
    58.496,       591,
   58.5162,       616,
   58.5364,       651,
   58.5565,       662,
   58.5767,       622,
   58.5969,       610,
    58.617,       611,
   58.6372,       585,
   58.6574,       631,
   58.6775,       644,
   58.6977,       611,
   58.7179,       639,
    58.738,       637,
   58.7582,       642,
   58.7784,       626,
   58.7986,       629,
   58.8187,       646,
   58.8389,       635,
   58.8591,       619,
   58.8792,       616,
   58.8994,       612,
   58.9196,       638,
   58.9397,       586,
   58.9599,       604,
   58.9801,       611,
   59.0002,       587,
   59.0204,       605,
   59.0406,       623,
   59.0607,       619,
   59.0809,       594,
   59.1011,       589,
   59.1213,       623,
   59.1414,       638,
   59.1616,       617,
   59.1818,       618,
   59.2019,       610,
   59.2221,       603,
   59.2423,       627,
   59.2624,       602,
   59.2826,       581,
   59.3028,       602,
   59.3229,       586,
   59.3431,       629,
   59.3633,       622,
   59.3834,       603,
   59.4036,       624,
   59.4238,       617,
   59.4439,       571,
   59.4641,       630,
   59.4843,       594,
   59.5045,       663,
   59.5246,       604,
   59.5448,       597,
    59.565,       627,
   59.5851,       632,
   59.6053,       651,
   59.6255,       617,
   59.6456,       616,
   59.6658,       639,
    59.686,       584,
   59.7061,       603,
   59.7263,       624,
   59.7465,       600,
   59.7666,       607,
   59.7868,       618,
    59.807,       608,
   59.8271,       636,
   59.8473,       662,
   59.8675,       637,
   59.8877,       607,
   59.9078,       613,
    59.928,       586,
   59.9482,       578,
   59.9683,       570,
   59.9885,       615,
   60.0087,       581,
   60.0288,       605,
    60.049,       668,
   60.0692,       577,
   60.0893,       604,
   60.1095,       639,
   60.1297,       620,
   60.1498,       610,
     60.17,       615,
   60.1902,       555,
   60.2104,       634,
   60.2305,       617,
   60.2507,       590,
   60.2709,       610,
    60.291,       618,
   60.3112,       608,
   60.3314,       622,
   60.3515,       575,
   60.3717,       636,
   60.3919,       591,
    60.412,       605,
   60.4322,       598,
   60.4524,       597,
   60.4725,       645,
   60.4927,       604,
   60.5129,       579,
    60.533,       605,
   60.5532,       613,
   60.5734,       613,
   60.5936,       644,
   60.6137,       608,
   60.6339,       628,
   60.6541,       596,
   60.6742,       612,
   60.6944,       628,
   60.7146,       597,
   60.7347,       587,
   60.7549,       617,
   60.7751,       603,
   60.7952,       588,
   60.8154,       606,
   60.8356,       629,
   60.8557,       595,
   60.8759,       617,
   60.8961,       627,
   60.9163,       606,
   60.9364,       647,
   60.9566,       625,
   60.9768,       585,
   60.9969,       611,
   61.0171,       605,
   61.0373,       594,
   61.0574,       580,
   61.0776,       616,
   61.0978,       636,
   61.1179,       613,
   61.1381,       626,
   61.1583,       566,
   61.1784,       642,
   61.1986,       607,
   61.2188,       576,
   61.2389,       629,
   61.2591,       593,
   61.2793,       592,
   61.2995,       563,
   61.3196,       632,
   61.3398,       606,
     61.36,       627,
   61.3801,       590,
   61.4003,       607,
   61.4205,       593,
   61.4406,       579,
   61.4608,       607,
    61.481,       595,
   61.5011,       603,
   61.5213,       613,
   61.5415,       676,
   61.5616,       609,
   61.5818,       600,
    61.602,       572,
   61.6221,       588,
   61.6423,       575,
   61.6625,       619,
   61.6827,       584,
   61.7028,       614,
    61.723,       649,
   61.7432,       603,
   61.7633,       618,
   61.7835,       570,
   61.8037,       616,
   61.8238,       610,
    61.844,       593,
   61.8642,       610,
   61.8843,       595,
   61.9045,       577,
   61.9247,       609,
   61.9448,       619,
    61.965,       604,
   61.9852,       611,
   62.0054,       604,
   62.0255,       632,
   62.0457,       633,
   62.0659,       609,
    62.086,       590,
   62.1062,       576,
   62.1264,       625,
   62.1465,       599,
   62.1667,       685,
   62.1869,       595,
    62.207,       609,
   62.2272,       607,
   62.2474,       624,
   62.2675,       642,
   62.2877,       629,
   62.3079,       627,
    62.328,       606,
   62.3482,       573,
   62.3684,       587,
   62.3886,       612,
   62.4087,       624,
   62.4289,       578,
   62.4491,       600,
   62.4692,       602,
   62.4894,       586,
   62.5096,       655,
   62.5297,       609,
   62.5499,       577,
   62.5701,       620,
   62.5902,       579,
   62.6104,       580,
   62.6306,       592,
   62.6507,       577,
   62.6709,       638,
   62.6911,       598,
   62.7112,       617,
   62.7314,       628,
   62.7516,       548,
   62.7718,       593,
   62.7919,       615,
   62.8121,       591,
   62.8323,       613,
   62.8524,       585,
   62.8726,       586,
   62.8928,       615,
   62.9129,       605,
   62.9331,       586,
   62.9533,       608,
   62.9734,       618,
   62.9936,       603,
   63.0138,       649,
   63.0339,       606,
   63.0541,       609,
   63.0743,       629,
   63.0945,       594,
   63.1146,       638,
   63.1348,       538,
    63.155,       648,
   63.1751,       614,
   63.1953,       588,
   63.2155,       572,
   63.2356,       622,
   63.2558,       641,
    63.276,       623,
   63.2961,       634,
   63.3163,       577,
   63.3365,       587,
   63.3566,       635,
   63.3768,       652,
    63.397,       614,
   63.4171,       649,
   63.4373,       615,
   63.4575,       582,
   63.4777,       601,
   63.4978,       610,
    63.518,       570,
   63.5382,       602,
   63.5583,       597,
   63.5785,       613,
   63.5987,       626,
   63.6188,       615,
    63.639,       592,
   63.6592,       596,
   63.6793,       599,
   63.6995,       581,
   63.7197,       602,
   63.7398,       582,
     63.76,       582,
   63.7802,       639,
   63.8003,       583,
   63.8205,       640,
   63.8407,       631,
   63.8609,       575,
    63.881,       596,
   63.9012,       579,
   63.9214,       608,
   63.9415,       604,
   63.9617,       564,
   63.9819,       643,
    64.002,       619,
   64.0222,       617,
   64.0424,       595,
   64.0625,       565,
   64.0827,       610,
   64.1029,       637,
    64.123,       647,
   64.1432,       613,
   64.1634,       574,
   64.1836,       616,
   64.2037,       622,
   64.2239,       601,
   64.2441,       555,
   64.2642,       638,
   64.2844,       590,
   64.3046,       569,
   64.3247,       567,
   64.3449,       620,
   64.3651,       597,
   64.3852,       645,
   64.4054,       597,
   64.4256,       582,
   64.4457,       584,
   64.4659,       623,
   64.4861,       572,
   64.5062,       568,
   64.5264,       561,
   64.5466,       609,
   64.5668,       620,
   64.5869,       571,
   64.6071,       582,
   64.6273,       635,
   64.6474,       603,
   64.6676,       650,
   64.6878,       597,
   64.7079,       598,
   64.7281,       605,
   64.7483,       625,
   64.7684,       609,
   64.7886,       553,
   64.8088,       609,
   64.8289,       604,
   64.8491,       647,
   64.8693,       625,
   64.8894,       570,
   64.9096,       629,
   64.9298,       617,
     64.95,       611,
   64.9701,       571,
   64.9903,       592,
   65.0105,       565,
   65.0306,       590,
   65.0508,       607,
    65.071,       649,
   65.0911,       576,
   65.1113,       629,
   65.1315,       575,
   65.1516,       625,
   65.1718,       631,
    65.192,       580,
   65.2121,       608,
   65.2323,       613,
   65.2525,       573,
   65.2727,       579,
   65.2928,       544,
    65.313,       577,
   65.3332,       599,
   65.3533,       566,
   65.3735,       613,
   65.3937,       574,
   65.4138,       600,
    65.434,       587,
   65.4542,       605,
   65.4743,       586,
   65.4945,       610,
   65.5147,       616,
   65.5348,       654,
    65.555,       611,
   65.5752,       594,
   65.5953,       604,
   65.6155,       586,
   65.6357,       607,
   65.6559,       613,
    65.676,       591,
   65.6962,       603,
   65.7164,       581,
   65.7365,       618,
   65.7567,       596,
   65.7769,       577,
    65.797,       618,
   65.8172,       601,
   65.8374,       537,
   65.8575,       579,
   65.8777,       610,
   65.8979,       593,
    65.918,       638,
   65.9382,       644,
   65.9584,       616,
   65.9786,       626,
   65.9987,       630,
   66.0189,       562,
   66.0391,       654,
   66.0592,       623,
   66.0794,       653,
   66.0996,       646,
   66.1197,       601,
   66.1399,       632,
   66.1601,       591,
   66.1802,       622,
   66.2004,       599,
   66.2206,       596,
   66.2407,       572,
   66.2609,       623,
   66.2811,       604,
   66.3012,       649,
   66.3214,       620,
   66.3416,       607,
   66.3618,       651,
   66.3819,       584,
   66.4021,       622,
   66.4223,       598,
   66.4424,       592,
   66.4626,       615,
   66.4828,       588,
   66.5029,       643,
   66.5231,       606,
   66.5433,       616,
   66.5634,       588,
   66.5836,       625,
   66.6038,       605,
   66.6239,       610,
   66.6441,       595,
   66.6643,       617,
   66.6844,       639,
   66.7046,       603,
   66.7248,       589,
    66.745,       607,
   66.7651,       616,
   66.7853,       592,
   66.8055,       620,
   66.8256,       623,
   66.8458,       597,
    66.866,       582,
   66.8861,       581,
   66.9063,       579,
   66.9265,       596,
   66.9466,       599,
   66.9668,       576,
    66.987,       574,
   67.0071,       571,
   67.0273,       619,
   67.0475,       602,
   67.0677,       566,
   67.0878,       673,
    67.108,       619,
   67.1282,       613,
   67.1483,       627,
   67.1685,       653,
   67.1887,       550,
   67.2088,       594,
    67.229,       616,
   67.2492,       580,
   67.2693,       605,
   67.2895,       622,
   67.3097,       583,
   67.3298,       554,
     67.35,       630,
   67.3702,       584,
   67.3903,       615,
   67.4105,       615,
   67.4307,       636,
   67.4509,       599,
    67.471,       643,
   67.4912,       596,
   67.5114,       610,
   67.5315,       638,
   67.5517,       593,
   67.5719,       605,
    67.592,       572,
   67.6122,       575,
   67.6324,       613,
   67.6525,       601,
   67.6727,       611,
   67.6929,       636,
    67.713,       580,
   67.7332,       602,
   67.7534,       596,
   67.7735,       593,
   67.7937,       566,
   67.8139,       591,
   67.8341,       629,
   67.8542,       590,
   67.8744,       628,
   67.8946,       640,
   67.9147,       588,
   67.9349,       651,
   67.9551,       598,
   67.9752,       615,
   67.9954,       601,
   68.0156,       613,
   68.0357,       584,
   68.0559,       592,
   68.0761,       592,
   68.0962,       590,
   68.1164,       569,
   68.1366,       622,
   68.1568,       594,
   68.1769,       625,
   68.1971,       590,
   68.2173,       569,
   68.2374,       541,
   68.2576,       625,
   68.2778,       591,
   68.2979,       605,
   68.3181,       619,
   68.3383,       611,
   68.3584,       583,
   68.3786,       573,
   68.3988,       589,
   68.4189,       579,
   68.4391,       639,
   68.4593,       593,
   68.4794,       605,
   68.4996,       572,
   68.5198,       615,
     68.54,       615,
   68.5601,       597,
   68.5803,       597,
   68.6005,       614,
   68.6206,       618,
   68.6408,       595,
    68.661,       564,
   68.6811,       605,
   68.7013,       540,
   68.7215,       646,
   68.7416,       594,
   68.7618,       596,
    68.782,       590,
   68.8021,       580,
   68.8223,       597,
   68.8425,       596,
   68.8626,       610,
   68.8828,       580,
    68.903,       602,
   68.9232,       606,
   68.9433,       585,
   68.9635,       568,
   68.9837,       604,
   69.0038,       605,
    69.024,       628,
   69.0442,       591,
   69.0643,       574,
   69.0845,       612,
   69.1047,       601,
   69.1248,       581,
    69.145,       599,
   69.1652,       592,
   69.1853,       633,
   69.2055,       591,
   69.2257,       606,
   69.2459,       559,
    69.266,       653,
   69.2862,       640,
   69.3064,       604,
   69.3265,       590,
   69.3467,       555,
   69.3669,       604,
    69.387,       553,
   69.4072,       594,
   69.4274,       624,
   69.4475,       573,
   69.4677,       601,
   69.4879,       615,
    69.508,       602,
   69.5282,       599,
   69.5484,       628,
   69.5685,       597,
   69.5887,       583,
   69.6089,       598,
   69.6291,       607,
   69.6492,       584,
   69.6694,       607,
   69.6896,       585,
   69.7097,       583,
   69.7299,       599,
   69.7501,       575,
   69.7702,       625,
   69.7904,       590,
   69.8106,       604,
   69.8307,       661,
   69.8509,       634,
   69.8711,       596,
   69.8912,       578,
   69.9114,       612,
   69.9316,       608,
   69.9517,       620,
   69.9719,       610,
   69.9921,       590,
   70.0123,       639,
   70.0324,       596,
   70.0526,       609,
   70.0728,       596,
   70.0929,       581,
   70.1131,       632,
   70.1333,       634,
   70.1534,       604,
   70.1736,       591,
   70.1938,       586,
   70.2139,       626,
   70.2341,       589,
   70.2543,       588,
   70.2744,       629,
   70.2946,       599,
   70.3148,       631,
    70.335,       560,
   70.3551,       630,
   70.3753,       609,
   70.3955,       589,
   70.4156,       577,
   70.4358,       596,
    70.456,       575,
   70.4761,       610,
   70.4963,       592,
   70.5165,       628,
   70.5366,       603,
   70.5568,       634,
    70.577,       600,
   70.5971,       587,
   70.6173,       623,
   70.6375,       577,
   70.6576,       575,
   70.6778,       602,
    70.698,       588,
   70.7182,       565,
   70.7383,       610,
   70.7585,       600,
   70.7787,       575,
   70.7988,       609,
    70.819,       654,
   70.8392,       609,
   70.8593,       578,
   70.8795,       615,
   70.8997,       593,
   70.9198,       607,
     70.94,       569,
   70.9602,       620,
   70.9803,       613,
   71.0005,       574,
   71.0207,       582,
   71.0409,       592,
    71.061,       547,
   71.0812,       624,
   71.1014,       558,
   71.1215,       586,
   71.1417,       633,
   71.1619,       626,
    71.182,       562,
   71.2022,       614,
   71.2224,       617,
   71.2425,       627,
   71.2627,       612,
   71.2829,       594,
    71.303,       617,
   71.3232,       587,
   71.3434,       625,
   71.3635,       627,
   71.3837,       630,
   71.4039,       611,
   71.4241,       636,
   71.4442,       642,
   71.4644,       640,
   71.4846,       635,
   71.5047,       610,
   71.5249,       609,
   71.5451,       609,
   71.5652,       654,
   71.5854,       653,
   71.6056,       585,
   71.6257,       612,
   71.6459,       591,
   71.6661,       643,
   71.6862,       582,
   71.7064,       610,
   71.7266,       617,
   71.7467,       612,
   71.7669,       644,
   71.7871,       677,
   71.8073,       606,
   71.8274,       624,
   71.8476,       619,
   71.8678,       620,
   71.8879,       612,
   71.9081,       646,
   71.9283,       623,
   71.9484,       622,
   71.9686,       584,
   71.9888,       604,
   72.0089,       604,
   72.0291,       602,
   72.0493,       621,
   72.0694,       628,
   72.0896,       601,
   72.1098,       621,
     72.13,       610,
   72.1501,       641,
   72.1703,       602,
   72.1905,       606,
   72.2106,       634,
   72.2308,       616,
    72.251,       635,
   72.2711,       599,
   72.2913,       636,
   72.3115,       587,
   72.3316,       637,
   72.3518,       578,
    72.372,       624,
   72.3921,       609,
   72.4123,       626,
   72.4325,       607,
   72.4526,       611,
   72.4728,       622,
    72.493,       633,
   72.5132,       629,
   72.5333,       625,
   72.5535,       624,
   72.5737,       591,
   72.5938,       611,
    72.614,       654,
   72.6342,       604,
   72.6543,       653,
   72.6745,       614,
   72.6947,       629,
   72.7148,       600,
    72.735,       652,
   72.7552,       587,
   72.7753,       650,
   72.7955,       616,
   72.8157,       644,
   72.8358,       608,
    72.856,       625,
   72.8762,       594,
   72.8964,       653,
   72.9165,       655,
   72.9367,       619,
   72.9569,       567,
    72.977,       642,
   72.9972,       607,
   73.0174,       628,
   73.0375,       595,
   73.0577,       655,
   73.0779,       637,
    73.098,       650,
   73.1182,       630,
   73.1384,       638,
   73.1585,       647,
   73.1787,       642,
   73.1989,       655,
   73.2191,       656,
   73.2392,       664,
   73.2594,       613,
   73.2796,       642,
   73.2997,       602,
   73.3199,       654,
   73.3401,       658,
   73.3602,       639,
   73.3804,       653,
   73.4006,       617,
   73.4207,       666,
   73.4409,       622,
   73.4611,       651,
   73.4812,       686,
   73.5014,       646,
   73.5216,       599,
   73.5417,       660,
   73.5619,       608,
   73.5821,       629,
   73.6023,       687,
   73.6224,       666,
   73.6426,       726,
   73.6628,       765,
   73.6829,       779,
   73.7031,       753,
   73.7233,       833,
   73.7434,       839,
   73.7636,       835,
   73.7838,       894,
   73.8039,       853,
   73.8241,       870,
   73.8443,       881,
   73.8644,       870,
   73.8846,       873,
   73.9048,       945,
   73.9249,      1019,
   73.9451,      1017,
   73.9653,      1207,
   73.9855,      1352,
   74.0056,      1642,
   74.0258,      2077,
    74.046,      2977,
   74.0661,      4992,
   74.0863,      8090,
   74.1065,     11601,
   74.1266,     12366,
   74.1468,      9230,
    74.167,      5788,
   74.1871,      3538,
   74.2073,      2586,
   74.2275,      2181,
   74.2476,      2195,
   74.2678,      2504,
    74.288,      3576,
   74.3082,      5150,
   74.3283,      6613,
   74.3485,      6215,
   74.3687,      4465,
   74.3888,      2979,
    74.409,      1976,
   74.4292,      1488,
   74.4493,      1164,
   74.4695,      1093,
   74.4897,      1009,
   74.5098,       910,
     74.53,       847,
   74.5502,       805,
   74.5703,       807,
   74.5905,       766,
   74.6107,       756,
   74.6308,       714,
    74.651,       719,
   74.6712,       736,
   74.6914,       683,
   74.7115,       673,
   74.7317,       696,
   74.7519,       626,
    74.772,       638,
   74.7922,       659,
   74.8124,       680,
   74.8325,       662,
   74.8527,       683,
   74.8729,       610,
    74.893,       670,
   74.9132,       628,
   74.9334,       628,
   74.9535,       648,
   74.9737,       638,
   74.9939,       631,
    75.014,       615,
   75.0342,       631,
   75.0544,       609,
   75.0746,       604,
   75.0947,       673,
   75.1149,       679,
   75.1351,       684,
   75.1552,       640,
   75.1754,       665,
   75.1956,       633,
   75.2157,       657,
   75.2359,       644,
   75.2561,       632,
   75.2762,       635,
   75.2964,       659,
   75.3166,       633,
   75.3367,       637,
   75.3569,       624,
   75.3771,       655,
   75.3973,       674,
   75.4174,       661,
   75.4376,       617,
   75.4578,       582,
   75.4779,       623,
   75.4981,       623,
   75.5183,       663,
   75.5384,       632,
   75.5586,       553,
   75.5788,       644,
   75.5989,       596,
   75.6191,       646,
   75.6393,       620,
   75.6594,       643,
   75.6796,       576,
   75.6998,       616,
   75.7199,       627,
   75.7401,       595,
   75.7603,       577,
   75.7805,       620,
   75.8006,       610,
   75.8208,       602,
    75.841,       611,
   75.8611,       612,
   75.8813,       651,
   75.9015,       651,
   75.9216,       656,
   75.9418,       619,
    75.962,       610,
   75.9821,       586,
   76.0023,       629,
   76.0225,       595,
   76.0426,       639,
   76.0628,       637,
    76.083,       607,
   76.1032,       580,
   76.1233,       636,
   76.1435,       609,
   76.1637,       605,
   76.1838,       623,
    76.204,       631,
   76.2242,       618,
   76.2443,       638,
   76.2645,       602,
   76.2847,       593,
   76.3048,       598,
    76.325,       621,
   76.3452,       631,
   76.3653,       621,
   76.3855,       648,
   76.4057,       649,
   76.4258,       634,
    76.446,       611,
   76.4662,       584,
   76.4864,       613,
   76.5065,       593,
   76.5267,       671,
   76.5469,       625,
    76.567,       592,
   76.5872,       617,
   76.6074,       613,
   76.6275,       589,
   76.6477,       612,
   76.6679,       596,
    76.688,       602,
   76.7082,       608,
   76.7284,       612,
   76.7485,       596,
   76.7687,       609,
   76.7889,       583,
    76.809,       584,
   76.8292,       625,
   76.8494,       598,
   76.8696,       643,
   76.8897,       634,
   76.9099,       592,
   76.9301,       588,
   76.9502,       614,
   76.9704,       608,
   76.9906,       581,
   77.0107,       592,
   77.0309,       605,
   77.0511,       634,
   77.0712,       573,
   77.0914,       628,
   77.1116,       591,
   77.1317,       614,
   77.1519,       606,
   77.1721,       593,
   77.1923,       616,
   77.2124,       611,
   77.2326,       618,
   77.2528,       619,
   77.2729,       590,
   77.2931,       596,
   77.3133,       591,
   77.3334,       612,
   77.3536,       662,
   77.3738,       642,
   77.3939,       638,
   77.4141,       593,
   77.4343,       643,
   77.4544,       611,
   77.4746,       620,
   77.4948,       577,
   77.5149,       633,
   77.5351,       599,
   77.5553,       646,
   77.5755,       624,
   77.5956,       624,
   77.6158,       597,
    77.636,       590,
   77.6561,       647,
   77.6763,       617,
   77.6965,       594,
   77.7166,       620,
   77.7368,       585,
    77.757,       560,
   77.7771,       589,
   77.7973,       589,
   77.8175,       619,
   77.8376,       607,
   77.8578,       577,
    77.878,       550,
   77.8981,       635,
   77.9183,       620,
   77.9385,       614,
   77.9587,       592,
   77.9788,       623,
    77.999,       624,
