;RAW4.00
[RawHeader]
Date=11/26/2025
EstimatedTotalTime=426.6
FurtherDQLReading=0
HardwareIndicator=65519
MeasuredTotalTime=4.29405
MeasurementFlag=1
NumberOfMeasuredRanges=1
NumberOfRanges=1
Time=11:59:45

[VarInfo]
Type=USER
Flags=0
Value=Lab Manager

[VarInfo]
Type=SAMPLEID
Flags=0
Value=Commander Sample ID

[VarInfo]
Type=COMMENT
Flags=0
Value=

[VarInfo]
Type=UTF
Flags=0
Value=

[VarInfo]
Type=CREATOR
Flags=0
Value=V5Converter

[VarInfo]
Type=CREATOR_VERSION
Flags=0
Value=4.4.16.0

[HardwareConfiguration]
AbsorptionFactor=9999
ActivateAbsorber=0
Alpha1=1.5406
Alpha2=1.54439
AlphaAverage=1.54184
AlphaRatio=0.5
Analyzer=0
Anode=Cu
AntiScatteringSlit=9999
BeamOpticsFlags=0
Beta=1.39222
BetaRelativeIntensity=0
DeactivateAbsorber=0
DetectorSlit=9999
DivergenceSlit=9999
GoniometerControl=0
GoniometerDiameter=282
GoniometerModel=256
GoniometerStage=7
Monochromator=0
NearSampleSlit=9999
PrimarySollerSlit=9999
SampleChanger=0
SecondSollerSlit=9999
SynchronousAxis=0
ThinFilmAttachment=9999
WaveUnit=A

[RangeHeader]
ActuallyUsedLambda=1.54184
AdditionalDetectorMask=257
DataRecordLength=4
DelayTime=0
DisplayPlaneNumber=0
EstimatedScanTime=427
ExtraParametersMask=0
GeneratorCurrent=10
GeneratorVoltage=30
Increment=0.0201685
Increment3=0
NumberOfCompletedData=1885
NumberOfCounts=1
NumberOfDetectors=0
NumberOfDrives=3
NumberOfEncoderDrives=0
NumberOfMeasuredData=1885
NumberOfVaryingParameters=0
RangeStartTime=0
RotationSpeed=0
ScanMode=1
ScanType=Locked Coupled
SimulatedMeasConditions=0
SlitChangerIn=0
SmootingWidth=0
Start=40.0015
Steps=1885
SynchronousRotation=0
Time=33

[VarInfo]
Type=PSD_DISCRIM
Flags=0
Value=0.11;0.5

[VarInfo]
Type=OPTICS_V5
Flags=0
Value=H4sIAAAAAAAEAO1d63KjOhJ+Fda/zqmtBIPtXKaITzm2J+OaOHbFTnKmtrZcBORYZzC4AOey//d99hl2X2x1QViIS8C3JBN+TCaodWm6+2vUUkfS/nieW9IjcD3o2GcV5bBakYBtOCa0H84qS396oBxV/mhqF44NnTnwgdt25gvHBrbf0X1dQq1t78uzB88qM99ffJHlp6enw6faoeM+yGq1qsh/9i9HxgzM9QNoe75uG6AStjJfb1WRbqEH7y1wpc/BWWXFR0joAM9w4cInL/Bj4UHLsSW+3oXrLBc9NBZ6t3Pgojcb3P8FDH+o+7OzitwBj9AAMt+CrxUfl1Lblu55QRehTORzoM8XqLDt2L4ObeBy/coBc6yHluEvdYtxoR6o1ePT02O5h8TkLue4tzhrTW2EZGjqqBswQr3oFvyXjl+9OdUtD2hyGln7c259hcAyrwHqHhq4EDFpA/KbJ8lNjfKD1ToCFipvdm00JDA1OUbR6Btwou9Ab2HpL824AjQ5tXK8m+bF4OrHhPzodEft64TGrBVWDOsoPhpP1bBWhrxWvISy1r0hIUP+4r8skMLHrm78xG8sGODQhXPdfSHkZBMMakgD9GxISBvSeHkPOIFIQeOidilHx44baRI9r5mSRmyEDSxUYBJZ3blu/xy4JnCvAfYzAL0wsdX3b8s5NVnMwIfj6+8T9KPV/l7IxHm5Jhp5z0OvBh9BE+kGCS98DAk920dCZMIVSikeHA9SJulgmhwp1bAq2ZMXfZT4B2LSAxc+QFu3ogSlwl6OWi7Ssb/0moPwnSLFGmsYPPedJdIj0qJQrgWE0MJ5JCOdEXICmjFtjmnJUA7J0tRxpRHQLUBtYA3AytxYcejGiMm4JZa46kmmLG0LrhEWBa3xcus++8A2MZDfDYZpCWdMkQKtj5nwHfcltGVFk+OFGseMJxH2qHoYWND7cnJosmJN5ku1uCnh1+H65qyTKx3Y545jAR1NEG5s6BPpdiDSG56bXcI59IlYwiKvWdVk7knrgKm+tPxb3VoCboigVyQ96CPXTshnFewlKri/oQta5l9LD8GnYEuZYx67mbHTJoqe6ZblPK0cjVCOarZnwPgJzFUVVqC1ESPOHKsWvx33pNH5Zl7erhEyxkg2xVq1lr7TdoHug6HrLIDrvzAWEyiR9/eIRfdMhLKr5fweuE21rslCEdaQRS08UPF//xMyUSUc9B0TNG8Quqbos4xMnTwz90Y+PzEHluy7tuWt5HgP/ND5vNXOHBXjLvaN2aNbYuh5A79Evm3IJvErCL6JJ23LP418rD3OPSHRTOHDEjnla/gw85sIdabECnU0BoKwUKWYS+vrz5fAfvBnTbXRwKJhj2nOjrJISkNktZevObqMVm/q5DL4SnFwGS02cm5pFninPwKqkpa1mOmKYIUieVuWOJh2nCVqyWzxf//ehzWm2Nxw9uJBQ7dIeQJnTA/KYaNePXrNFtfo7ca2MPfItOjcf/WMZelYS+paugfVBtErK9H60Ibz5bx5oBwenx4fndaUWv3kSK0pjePu32vVE4S4oAZGIvklvWZQ4W0Rs4b0UpC0Rk/7QJiajTD10yOsXjvdJsRYdyXGNhLfFkDGuto1yh6Bqz+IoV6M/ulxppzUt4kz1l2Js43EtwWcsa52jLNz4OupIMPET46w2qmqqttD2Kq7EmEbiW9jhK262jHCrvGaRirECHVXGHuvCFutth02NsJWrKMSVWsKbh08xTrZCZK+OsbSG7gQ2D5ZHRSgJJK3tspG1g4H057tH9XfH6CibEVXr/OjKbkXhfRCBYDfqOeDOWLs0nmABl3VvJn0rm5bl73OpP2tN9TkFYkJfAye/WbPftQtiMQzg4uVjCJaIvW07+CFjI1lEf6uyTEWsnm67F2lsnIJbSARW0kbWtlk6OEgY+yhA20/e3B1k8GZLoaD0auqCHeKD6S58wgk35HmwJjpNrYKCTmTxd/SeKxl8/ienF2WXefzdFk9bOTm6N5Lz546UqiqhAVciZbr3FOQY3BWIVUkVBrdJr+ZtC6H31rRcrGRhEeyyEjkXXKxo0bYURPZUVPYUbPYUQuzEywL8PxEyoQBQloib5PW7UUWe0HrokySmCrg8D78PeybkkWGzrvjVjIvuH4+FiIbUQEDqBXeyxN46LJSkY3uZbffvRqnSMV2TCAFbaXVSDlkQmfBvNq4EkHsASVZZdetcW+QpTTSOp+8YlOLgL9pYnk4ToQicvl10J4MrpMZJONJkeZyfMe6Ed+xvgA2skTfcYU8TFacvPmcsQFLZ8dr7r82tXQiP3O7dSw/voYXlO4q5vl5u6WEjcypLxqFfRNqVSHyCL4FKaFHctihVBMCjFp1f7FErbF+MBEXRsEvZLo55TW19tJ1sT+LmlpQuitTm7f2YWpolHD6sQ1TaySFsh/E0uKy2LulDZ0nkgHOmxQp25WV3aUEnW+xcHMnRJr5lluqhymm+EkWW+4491hde7Ul3ssWbV9+7YtfJA0UTQyNGXBfyVbbPA8ud74bklUw60j9YgWfilQ/I4dzraYmBmuZ2QhiKJW9qxqLdLI3h6IxR/YytzAXT1vD42MIIXVJnC4nR8cylyaJ7OZRhxZeJcCPHu2eWH2ZQFkmUJYJlGUCZZlA+fE2xcsEyvezJV4mUP6aCCsTKN8TxsoEyl8VZ2UC5XvCWZlA+ashrEygfE8IKxMoywTKMoGyTKAsEyjLBMoygbJMoCwTKMsEyjKBskygLBMoywTKMoGyTKAsEyjLBMoygbJMoHzr+KNMoCwTKD9tAiXLkUS/iumT7KzT+Cmg4tm7GScqd+cL/4UkG4arGcVOT+72h4PRhP4scnoyGTg0xcTzk2U+BzLzcGMl7XBjde+HGw8WbefceR5MR45lATfhiGNKyDjkmKsg/WbotmTQQ8ElNJZEifQE7N/XgX9k+LhXSSBnuYaE6hunwkb7FPSZfOxxRGTIPPKL8PePe2KymphYK0bAR+scevtxXAin6Q2diJrmRGpv50S+wmdgEkNlcw/RmVjQz3IliCz1U2CAaRv4kdXICV5EJGb6ELHy5h6E61FQZYr/YA2o98gntQ/sOmq5XMfxeudlE7OmVzSsTJpYMhZe0hcRy1SR/jGf/zPDjH/DR/7fA2QfErQ9hAVgol98R9I5hWWaMq5mhBds4KeJUp0oaQYcIb5mwIVtN52ZmPP5qH/5US30lx930PRnYm4HLtvZktP8/WxBxzgL44DNsuvjPeVdZqh+7nWGuODWWWeI97KTtI5vABumgB1a+LnBszXslNBZz+i3gpzt3wSirjOzGenzhQXuZgBYY/QC/KUgIkkjH65UJ0ChmfamMj+F+lCxGJtFbxiJ1dIisfpGkRjhMR6HvT9h3thLD5hkeHHgLInKwm1g17oJl16CldWVYB+fXrg3mE494KdZfesZevz3Iay2B1ceYybnbh1ywVU1LSlVPTypn6qNRkNN8LvHjcOTRv24dqQqvK8VhNAM7mETbitc+w7DEUCRgJl9i2FYh7v9roNCXwNnMmzhLkORh4SYKLFGsfsMwz42ifVFRj70nYaF9FrM/4zwzYaj4jcbRuW787sNw+F2cbvhyRss3uHlOks3wMyxzMQtgMsX+xm8pBxzcfnj6s/ujy654bCjSsOZ7olX4OYEsRyOEwezQMpa3mDWKOO8X3k4Wj2jProvYAvX6KYzLmrzl7v28CTPUlxNiU9Yi8wL0ecUu0XdWrmWfniNJk2pxn6HJHazGl4xZ9PpjyfkXwFHw4ba6R6gstmscZebgP09bgIKCIswkLYN2N/zNmAmj6JSs3YC+59rJ1Cp53Ii1c+wFVhGSkUjpbRAqXF4dHrSUJRqPWmBqqEcHldP68dqfQeB0sontAHGieA9hcKI4+SmzLSadMAw70kjnLfkkW8dVkPLMIDnOS4E3hoRE+Mi7j2jlLwRUvyl1/ekrIcPHRqtqcpiLudicNWekB9FHA7lZ+eh0Ri4qHQnkdHp3mdFwxkkShPAfO0EGXBRYgTUqKlErdE1Wb0CGJXZGHSdNqGDKCsJ1TJnP6vqMuJUZpxuDuAUxgVFpsREEgUYMFu+rxszPNBZ5WDPRwluc5pzmitr4SQ+y+l5TBQhKMMCjfMcZLfIWj48ALPjYkzSv8ZE3eHvWs9sIu2S3oNHTCEVRwtgwGnwt6KsUpyC4BLvvcgEK46DYs5u+K03mpAfRZxdFKHbnGBVi0yvQisOP5lEYfRDEPwf22IqXU7pckqXI7qcECvsd+8VLsZPznhGTjB6jZVIzZz8ZA+dc9yig6ZEJvFifFQxXo8YAd9H0PIkfi6GHAXNPKxILbzB7vVR6AbplI5NtLGOuVT/5i2e1Rn4EFu+VFtBkewhB6uqmiyUa3yqI/WAkWUTj/6JxSqYYK6D6Pv/u9RXv2COAAA=

[PSD]
ActualTwoTheta=9999
FirstUsedChannel=0
FixedPSD=0
PSDOpening=4.99171
PSDType=5

[Drive]
DriveFlags=1
DriveName=2Theta
DriveNumber=2
DriveOffset=0
OffsetIndex=0
OscillationAmplitude=0
OscillationSpeed=0
StartPosition=40.0015

[Drive]
DriveFlags=1
DriveName=Theta
DriveNumber=1
DriveOffset=0
OffsetIndex=0
OscillationAmplitude=0
OscillationSpeed=0
StartPosition=20.0007

[Drive]
DriveFlags=1
DriveName=Phi
DriveNumber=3
DriveOffset=0
OffsetIndex=0
OscillationAmplitude=0
OscillationSpeed=0
StartPosition=0

[Data]
     Angle,       PSD,
   40.0015,       643,
   40.0217,       631,
   40.0418,       646,
    40.062,       628,
   40.0822,       613,
   40.1023,       645,
   40.1225,       619,
   40.1427,       590,
   40.1628,       610,
    40.183,       643,
   40.2032,       630,
   40.2233,       647,
   40.2435,       595,
   40.2637,       632,
   40.2838,       631,
    40.304,       622,
   40.3242,       594,
   40.3444,       631,
   40.3645,       598,
   40.3847,       605,
   40.4049,       613,
    40.425,       593,
   40.4452,       638,
   40.4654,       605,
   40.4855,       665,
   40.5057,       596,
   40.5259,       606,
    40.546,       604,
   40.5662,       583,
   40.5864,       605,
   40.6065,       562,
   40.6267,       634,
   40.6469,       633,
   40.6671,       619,
   40.6872,       618,
   40.7074,       607,
   40.7276,       651,
   40.7477,       604,
   40.7679,       646,
   40.7881,       614,
   40.8082,       569,
   40.8284,       568,
   40.8486,       617,
   40.8687,       619,
   40.8889,       630,
   40.9091,       604,
   40.9292,       612,
   40.9494,       619,
   40.9696,       608,
   40.9897,       617,
   41.0099,       671,
   41.0301,       601,
   41.0503,       621,
   41.0704,       628,
   41.0906,       619,
   41.1108,       609,
   41.1309,       629,
   41.1511,       679,
   41.1713,       619,
   41.1914,       653,
   41.2116,       659,
   41.2318,       607,
   41.2519,       609,
   41.2721,       597,
   41.2923,       640,
   41.3124,       630,
   41.3326,       647,
   41.3528,       627,
   41.3729,       592,
   41.3931,       643,
   41.4133,       648,
   41.4335,       629,
   41.4536,       613,
   41.4738,       643,
    41.494,       642,
   41.5141,       634,
   41.5343,       621,
   41.5545,       607,
   41.5746,       650,
   41.5948,       594,
    41.615,       616,
   41.6351,       614,
   41.6553,       617,
   41.6755,       662,
   41.6956,       672,
   41.7158,       656,
    41.736,       643,
   41.7562,       639,
   41.7763,       590,
   41.7965,       660,
   41.8167,       570,
   41.8368,       604,
    41.857,       636,
   41.8772,       656,
   41.8973,       665,
   41.9175,       653,
   41.9377,       622,
   41.9578,       657,
    41.978,       665,
   41.9982,       694,
   42.0183,       731,
   42.0385,       698,
   42.0587,       757,
   42.0788,       715,
    42.099,       680,
   42.1192,       692,
   42.1394,       732,
   42.1595,       717,
   42.1797,       708,
   42.1999,       729,
     42.22,       756,
   42.2402,       701,
   42.2604,       722,
   42.2805,       708,
   42.3007,       726,
   42.3209,       728,
    42.341,       706,
   42.3612,       700,
   42.3814,       716,
   42.4015,       736,
   42.4217,       722,
   42.4419,       786,
    42.462,       783,
   42.4822,       681,
   42.5024,       723,
   42.5226,       808,
   42.5427,       782,
   42.5629,       718,
   42.5831,       792,
   42.6032,       736,
   42.6234,       765,
   42.6436,       752,
   42.6637,       790,
   42.6839,       769,
   42.7041,       752,
   42.7242,       782,
   42.7444,       739,
   42.7646,       718,
   42.7847,       814,
   42.8049,       793,
   42.8251,       761,
   42.8453,       752,
   42.8654,       782,
   42.8856,       781,
   42.9058,       775,
   42.9259,       792,
   42.9461,       743,
   42.9663,       791,
   42.9864,       825,
   43.0066,       847,
   43.0268,       829,
   43.0469,       913,
   43.0671,       995,
   43.0873,      1000,
   43.1074,      1025,
   43.1276,      1102,
   43.1478,      1081,
   43.1679,      1078,
   43.1881,      1193,
   43.2083,      1213,
   43.2285,      1271,
   43.2486,      1348,
   43.2688,      1520,
    43.289,      1678,
   43.3091,      1839,
   43.3293,      2012,
   43.3495,      2012,
   43.3696,      2278,
   43.3898,      2534,
     43.41,      3401,
   43.4301,      5455,
   43.4503,     10641,
   43.4705,     23664,
   43.4906,     43532,
   43.5108,     50666,
    43.531,     35921,
   43.5511,     18854,
   43.5713,     13695,
   43.5915,     18593,
   43.6117,     25957,
   43.6318,     24446,
    43.652,     14890,
   43.6722,      7275,
   43.6923,      4025,
   43.7125,      2767,
   43.7327,      2262,
   43.7528,      1975,
    43.773,      1796,
   43.7932,      1648,
   43.8133,      1508,
   43.8335,      1373,
   43.8537,      1259,
   43.8738,      1216,
    43.894,      1117,
   43.9142,      1164,
   43.9344,      1027,
   43.9545,      1033,
   43.9747,       928,
   43.9949,       855,
    44.015,       858,
   44.0352,       867,
   44.0554,       788,
   44.0755,       808,
   44.0957,       850,
   44.1159,       818,
    44.136,       805,
   44.1562,       772,
   44.1764,       774,
   44.1965,       792,
   44.2167,       761,
   44.2369,       797,
    44.257,       768,
   44.2772,       801,
   44.2974,       796,
   44.3176,       735,
   44.3377,       792,
   44.3579,       780,
   44.3781,       748,
   44.3982,       735,
   44.4184,       710,
   44.4386,       724,
   44.4587,       734,
   44.4789,       684,
   44.4991,       764,
   44.5192,       677,
   44.5394,       748,
   44.5596,       781,
   44.5797,       733,
   44.5999,       706,
   44.6201,       722,
   44.6402,       700,
   44.6604,       708,
   44.6806,       706,
   44.7008,       724,
   44.7209,       725,
   44.7411,       691,
   44.7613,       733,
   44.7814,       705,
   44.8016,       733,
   44.8218,       750,
   44.8419,       735,
   44.8621,       679,
   44.8823,       720,
   44.9024,       685,
   44.9226,       643,
   44.9428,       714,
   44.9629,       715,
   44.9831,       677,
   45.0033,       685,
   45.0235,       693,
   45.0436,       713,
   45.0638,       697,
    45.084,       698,
   45.1041,       663,
   45.1243,       693,
   45.1445,       692,
   45.1646,       628,
   45.1848,       703,
    45.205,       700,
   45.2251,       710,
   45.2453,       710,
   45.2655,       702,
   45.2856,       730,
   45.3058,       705,
    45.326,       666,
   45.3461,       683,
   45.3663,       677,
   45.3865,       704,
   45.4067,       684,
   45.4268,       703,
    45.447,       707,
   45.4672,       714,
   45.4873,       668,
   45.5075,       722,
   45.5277,       701,
   45.5478,       667,
    45.568,       730,
   45.5882,       667,
   45.6083,       636,
   45.6285,       660,
   45.6487,       675,
   45.6688,       689,
    45.689,       690,
   45.7092,       642,
   45.7294,       647,
   45.7495,       703,
   45.7697,       647,
   45.7899,       649,
     45.81,       691,
   45.8302,       689,
   45.8504,       678,
   45.8705,       650,
   45.8907,       642,
   45.9109,       658,
    45.931,       662,
   45.9512,       573,
   45.9714,       652,
   45.9915,       650,
   46.0117,       691,
   46.0319,       686,
    46.052,       669,
   46.0722,       626,
   46.0924,       671,
   46.1126,       696,
   46.1327,       648,
   46.1529,       690,
   46.1731,       658,
   46.1932,       682,
   46.2134,       608,
   46.2336,       637,
   46.2537,       677,
   46.2739,       654,
   46.2941,       646,
   46.3142,       651,
   46.3344,       688,
   46.3546,       665,
   46.3747,       653,
   46.3949,       719,
   46.4151,       653,
   46.4352,       689,
   46.4554,       668,
   46.4756,       606,
   46.4958,       638,
   46.5159,       637,
   46.5361,       685,
   46.5563,       668,
   46.5764,       671,
   46.5966,       684,
   46.6168,       690,
   46.6369,       726,
   46.6571,       650,
   46.6773,       609,
   46.6974,       680,
   46.7176,       646,
   46.7378,       684,
   46.7579,       723,
   46.7781,       629,
   46.7983,       700,
   46.8185,       644,
   46.8386,       658,
   46.8588,       645,
    46.879,       640,
   46.8991,       639,
   46.9193,       701,
   46.9395,       626,
   46.9596,       671,
   46.9798,       659,
        47,       653,
   47.0201,       630,
   47.0403,       689,
   47.0605,       613,
   47.0806,       642,
   47.1008,       678,
    47.121,       644,
   47.1411,       623,
   47.1613,       618,
   47.1815,       660,
   47.2017,       587,
   47.2218,       675,
    47.242,       688,
   47.2622,       672,
   47.2823,       660,
   47.3025,       657,
   47.3227,       619,
   47.3428,       687,
    47.363,       642,
   47.3832,       618,
   47.4033,       708,
   47.4235,       616,
   47.4437,       668,
   47.4638,       693,
    47.484,       631,
   47.5042,       676,
   47.5243,       631,
   47.5445,       629,
   47.5647,       702,
   47.5849,       671,
    47.605,       659,
   47.6252,       671,
   47.6454,       640,
   47.6655,       662,
   47.6857,       662,
   47.7059,       601,
    47.726,       645,
   47.7462,       629,
   47.7664,       685,
   47.7865,       693,
   47.8067,       668,
   47.8269,       661,
    47.847,       662,
   47.8672,       606,
   47.8874,       643,
   47.9076,       612,
   47.9277,       656,
   47.9479,       649,
   47.9681,       630,
   47.9882,       621,
   48.0084,       622,
   48.0286,       662,
   48.0487,       633,
   48.0689,       655,
   48.0891,       610,
   48.1092,       626,
   48.1294,       642,
   48.1496,       663,
   48.1697,       623,
   48.1899,       602,
   48.2101,       639,
   48.2302,       644,
   48.2504,       665,
   48.2706,       639,
   48.2908,       617,
   48.3109,       602,
   48.3311,       654,
   48.3513,       647,
   48.3714,       658,
   48.3916,       577,
   48.4118,       644,
   48.4319,       640,
   48.4521,       659,
   48.4723,       632,
   48.4924,       636,
   48.5126,       628,
   48.5328,       637,
   48.5529,       619,
   48.5731,       612,
   48.5933,       617,
   48.6134,       623,
   48.6336,       590,
   48.6538,       625,
    48.674,       651,
   48.6941,       672,
   48.7143,       667,
   48.7345,       669,
   48.7546,       661,
   48.7748,       617,
    48.795,       706,
   48.8151,       640,
   48.8353,       668,
   48.8555,       658,
   48.8756,       701,
   48.8958,       661,
    48.916,       654,
   48.9361,       640,
   48.9563,       681,
   48.9765,       629,
   48.9967,       662,
   49.0168,       675,
    49.037,       614,
   49.0572,       667,
   49.0773,       705,
   49.0975,       674,
   49.1177,       680,
   49.1378,       679,
    49.158,       662,
   49.1782,       686,
   49.1983,       684,
   49.2185,       655,
   49.2387,       685,
   49.2588,       682,
    49.279,       633,
   49.2992,       660,
   49.3193,       670,
   49.3395,       683,
   49.3597,       680,
   49.3799,       669,
      49.4,       677,
   49.4202,       636,
   49.4404,       700,
   49.4605,       634,
   49.4807,       684,
   49.5009,       701,
    49.521,       665,
   49.5412,       645,
   49.5614,       709,
   49.5815,       654,
   49.6017,       719,
   49.6219,       697,
    49.642,       692,
   49.6622,       706,
   49.6824,       672,
   49.7025,       711,
   49.7227,       679,
   49.7429,       656,
   49.7631,       764,
   49.7832,       717,
   49.8034,       661,
   49.8236,       707,
   49.8437,       639,
   49.8639,       669,
   49.8841,       669,
   49.9042,       670,
   49.9244,       677,
   49.9446,       684,
   49.9647,       701,
   49.9849,       667,
   50.0051,       644,
   50.0252,       691,
   50.0454,       683,
   50.0656,       736,
   50.0858,       716,
   50.1059,       741,
   50.1261,       722,
   50.1463,       751,
   50.1664,       741,
   50.1866,       801,
   50.2068,       748,
   50.2269,       809,
   50.2471,       797,
   50.2673,       832,
   50.2874,       839,
   50.3076,       859,
   50.3278,       904,
   50.3479,       909,
   50.3681,       973,
   50.3883,      1007,
   50.4084,      1061,
   50.4286,      1071,
   50.4488,      1185,
    50.469,      1195,
   50.4891,      1408,
   50.5093,      1520,
   50.5295,      1916,
   50.5496,      2531,
   50.5698,      4019,
     50.59,      6390,
   50.6101,      9568,
   50.6303,     11873,
   50.6505,     10784,
   50.6706,      7819,
   50.6908,      5367,
    50.711,      4580,
   50.7311,      5154,
   50.7513,      6357,
   50.7715,      6547,
   50.7917,      5548,
   50.8118,      3873,
    50.832,      2422,
   50.8522,      1835,
   50.8723,      1462,
   50.8925,      1229,
   50.9127,      1114,
   50.9328,      1050,
    50.953,       966,
   50.9732,       962,
   50.9933,       891,
   51.0135,       796,
   51.0337,       821,
   51.0538,       798,
    51.074,       812,
   51.0942,       710,
   51.1143,       707,
   51.1345,       759,
   51.1547,       736,
   51.1749,       716,
    51.195,       717,
   51.2152,       676,
   51.2354,       671,
   51.2555,       709,
   51.2757,       680,
   51.2959,       694,
    51.316,       705,
   51.3362,       645,
   51.3564,       676,
   51.3765,       688,
   51.3967,       701,
   51.4169,       640,
    51.437,       686,
   51.4572,       709,
   51.4774,       682,
   51.4975,       679,
   51.5177,       643,
   51.5379,       656,
   51.5581,       697,
   51.5782,       682,
   51.5984,       682,
   51.6186,       678,
   51.6387,       640,
   51.6589,       655,
   51.6791,       667,
   51.6992,       649,
   51.7194,       675,
   51.7396,       648,
   51.7597,       696,
   51.7799,       639,
   51.8001,       643,
   51.8202,       612,
   51.8404,       680,
   51.8606,       638,
   51.8808,       638,
   51.9009,       661,
   51.9211,       659,
   51.9413,       644,
   51.9614,       614,
   51.9816,       607,
   52.0018,       576,
   52.0219,       649,
   52.0421,       684,
   52.0623,       630,
   52.0824,       685,
   52.1026,       650,
   52.1228,       567,
   52.1429,       630,
   52.1631,       641,
   52.1833,       662,
   52.2034,       639,
   52.2236,       639,
   52.2438,       657,
    52.264,       606,
   52.2841,       649,
   52.3043,       644,
   52.3245,       635,
   52.3446,       599,
   52.3648,       648,
    52.385,       635,
   52.4051,       640,
   52.4253,       621,
   52.4455,       671,
   52.4656,       597,
   52.4858,       590,
    52.506,       660,
   52.5261,       650,
   52.5463,       658,
   52.5665,       638,
   52.5866,       669,
   52.6068,       628,
    52.627,       624,
   52.6472,       611,
   52.6673,       661,
   52.6875,       592,
   52.7077,       574,
   52.7278,       619,
    52.748,       576,
   52.7682,       635,
   52.7883,       627,
   52.8085,       588,
   52.8287,       550,
   52.8488,       634,
    52.869,       634,
   52.8892,       656,
   52.9093,       642,
   52.9295,       663,
   52.9497,       662,
   52.9699,       644,
     52.99,       628,
   53.0102,       577,
   53.0304,       643,
   53.0505,       632,
   53.0707,       601,
   53.0909,       638,
    53.111,       671,
   53.1312,       593,
   53.1514,       595,
   53.1715,       592,
   53.1917,       635,
   53.2119,       617,
    53.232,       608,
   53.2522,       634,
   53.2724,       594,
   53.2925,       590,
   53.3127,       659,
   53.3329,       612,
   53.3531,       646,
   53.3732,       612,
   53.3934,       621,
   53.4136,       678,
   53.4337,       665,
   53.4539,       606,
   53.4741,       579,
   53.4942,       650,
   53.5144,       616,
   53.5346,       630,
   53.5547,       601,
   53.5749,       588,
   53.5951,       614,
   53.6152,       624,
   53.6354,       611,
   53.6556,       571,
   53.6757,       642,
   53.6959,       637,
   53.7161,       651,
   53.7363,       619,
   53.7564,       583,
   53.7766,       654,
   53.7968,       641,
   53.8169,       632,
   53.8371,       632,
   53.8573,       657,
   53.8774,       602,
   53.8976,       654,
   53.9178,       625,
   53.9379,       627,
   53.9581,       633,
   53.9783,       581,
   53.9984,       658,
   54.0186,       608,
   54.0388,       564,
    54.059,       625,
   54.0791,       593,
   54.0993,       617,
   54.1195,       624,
   54.1396,       644,
   54.1598,       591,
     54.18,       581,
   54.2001,       630,
   54.2203,       628,
   54.2405,       610,
   54.2606,       593,
   54.2808,       626,
    54.301,       628,
   54.3211,       623,
   54.3413,       654,
   54.3615,       617,
   54.3816,       624,
   54.4018,       583,
    54.422,       557,
   54.4422,       611,
   54.4623,       648,
   54.4825,       594,
   54.5027,       630,
   54.5228,       610,
    54.543,       620,
   54.5632,       575,
   54.5833,       634,
   54.6035,       611,
   54.6237,       618,
   54.6438,       651,
    54.664,       634,
   54.6842,       596,
   54.7043,       615,
   54.7245,       629,
   54.7447,       622,
   54.7648,       609,
    54.785,       640,
   54.8052,       602,
   54.8254,       644,
   54.8455,       613,
   54.8657,       599,
   54.8859,       617,
    54.906,       618,
   54.9262,       661,
   54.9464,       609,
   54.9665,       598,
   54.9867,       606,
   55.0069,       611,
    55.027,       590,
   55.0472,       618,
   55.0674,       637,
   55.0875,       566,
   55.1077,       586,
   55.1279,       654,
   55.1481,       598,
   55.1682,       624,
   55.1884,       634,
   55.2086,       676,
   55.2287,       635,
   55.2489,       627,
   55.2691,       623,
   55.2892,       620,
   55.3094,       632,
   55.3296,       616,
   55.3497,       647,
   55.3699,       574,
   55.3901,       580,
   55.4102,       600,
   55.4304,       665,
   55.4506,       633,
   55.4707,       574,
   55.4909,       613,
   55.5111,       646,
   55.5313,       610,
   55.5514,       614,
   55.5716,       610,
   55.5918,       628,
   55.6119,       559,
   55.6321,       640,
   55.6523,       623,
   55.6724,       594,
   55.6926,       609,
   55.7128,       601,
   55.7329,       610,
   55.7531,       622,
   55.7733,       612,
   55.7934,       616,
   55.8136,       591,
   55.8338,       645,
    55.854,       622,
   55.8741,       592,
   55.8943,       566,
   55.9145,       601,
   55.9346,       599,
   55.9548,       611,
    55.975,       618,
   55.9951,       630,
   56.0153,       593,
   56.0355,       596,
   56.0556,       605,
   56.0758,       581,
    56.096,       601,
   56.1161,       616,
   56.1363,       586,
   56.1565,       590,
   56.1766,       603,
   56.1968,       634,
    56.217,       597,
   56.2372,       608,
   56.2573,       656,
   56.2775,       626,
   56.2977,       586,
   56.3178,       608,
    56.338,       617,
   56.3582,       614,
   56.3783,       600,
   56.3985,       604,
   56.4187,       581,
   56.4388,       610,
    56.459,       595,
   56.4792,       580,
   56.4993,       599,
   56.5195,       631,
   56.5397,       597,
   56.5598,       625,
     56.58,       580,
   56.6002,       632,
   56.6204,       590,
   56.6405,       615,
   56.6607,       595,
   56.6809,       597,
    56.701,       620,
   56.7212,       619,
   56.7414,       595,
   56.7615,       621,
   56.7817,       619,
   56.8019,       653,
    56.822,       614,
   56.8422,       588,
   56.8624,       589,
   56.8825,       616,
   56.9027,       637,
   56.9229,       560,
   56.9431,       606,
   56.9632,       562,
   56.9834,       650,
   57.0036,       591,
   57.0237,       599,
   57.0439,       575,
   57.0641,       615,
   57.0842,       572,
   57.1044,       607,
   57.1246,       617,
   57.1447,       628,
   57.1649,       655,
   57.1851,       553,
   57.2052,       632,
   57.2254,       629,
   57.2456,       593,
   57.2657,       611,
   57.2859,       604,
   57.3061,       625,
   57.3263,       611,
   57.3464,       581,
   57.3666,       607,
   57.3868,       590,
   57.4069,       579,
   57.4271,       639,
   57.4473,       621,
   57.4674,       644,
   57.4876,       598,
   57.5078,       598,
   57.5279,       604,
   57.5481,       579,
   57.5683,       561,
   57.5884,       577,
   57.6086,       613,
   57.6288,       637,
   57.6489,       602,
   57.6691,       609,
   57.6893,       613,
   57.7095,       634,
   57.7296,       595,
   57.7498,       568,
     57.77,       588,
   57.7901,       633,
   57.8103,       618,
   57.8305,       612,
   57.8506,       615,
   57.8708,       621,
    57.891,       647,
   57.9111,       620,
   57.9313,       586,
   57.9515,       637,
   57.9716,       587,
   57.9918,       583,
    58.012,       630,
   58.0322,       586,
   58.0523,       621,
   58.0725,       638,
   58.0927,       618,
   58.1128,       597,
    58.133,       595,
   58.1532,       598,
   58.1733,       582,
   58.1935,       616,
   58.2137,       646,
   58.2338,       588,
    58.254,       575,
   58.2742,       608,
   58.2943,       606,
   58.3145,       561,
   58.3347,       595,
   58.3548,       602,
    58.375,       571,
   58.3952,       635,
   58.4154,       587,
   58.4355,       618,
   58.4557,       605,
   58.4759,       640,
    58.496,       616,
   58.5162,       605,
   58.5364,       613,
   58.5565,       554,
   58.5767,       625,
   58.5969,       608,
    58.617,       609,
   58.6372,       580,
   58.6574,       595,
   58.6775,       564,
   58.6977,       623,
   58.7179,       617,
    58.738,       598,
   58.7582,       566,
   58.7784,       576,
   58.7986,       667,
   58.8187,       557,
   58.8389,       604,
   58.8591,       552,
   58.8792,       573,
   58.8994,       621,
   58.9196,       595,
   58.9397,       606,
   58.9599,       582,
   58.9801,       587,
   59.0002,       600,
   59.0204,       603,
   59.0406,       612,
   59.0607,       638,
   59.0809,       588,
   59.1011,       612,
   59.1213,       609,
   59.1414,       588,
   59.1616,       584,
   59.1818,       588,
   59.2019,       602,
   59.2221,       626,
   59.2423,       618,
   59.2624,       603,
   59.2826,       550,
   59.3028,       590,
   59.3229,       589,
   59.3431,       577,
   59.3633,       606,
   59.3834,       589,
   59.4036,       534,
   59.4238,       609,
   59.4439,       611,
   59.4641,       607,
   59.4843,       577,
   59.5045,       618,
   59.5246,       589,
   59.5448,       594,
    59.565,       625,
   59.5851,       610,
   59.6053,       599,
   59.6255,       627,
   59.6456,       588,
   59.6658,       600,
    59.686,       594,
   59.7061,       594,
   59.7263,       579,
   59.7465,       599,
   59.7666,       615,
   59.7868,       563,
    59.807,       612,
   59.8271,       581,
   59.8473,       610,
   59.8675,       609,
   59.8877,       597,
   59.9078,       614,
    59.928,       622,
   59.9482,       609,
   59.9683,       634,
   59.9885,       609,
   60.0087,       578,
   60.0288,       602,
    60.049,       588,
   60.0692,       572,
   60.0893,       592,
   60.1095,       609,
   60.1297,       612,
   60.1498,       550,
     60.17,       596,
   60.1902,       588,
   60.2104,       586,
   60.2305,       539,
   60.2507,       577,
   60.2709,       613,
    60.291,       612,
   60.3112,       598,
   60.3314,       623,
   60.3515,       589,
   60.3717,       612,
   60.3919,       577,
    60.412,       606,
   60.4322,       623,
   60.4524,       575,
   60.4725,       604,
   60.4927,       582,
   60.5129,       595,
    60.533,       594,
   60.5532,       589,
   60.5734,       548,
   60.5936,       599,
   60.6137,       623,
   60.6339,       596,
   60.6541,       565,
   60.6742,       583,
   60.6944,       570,
   60.7146,       623,
   60.7347,       588,
   60.7549,       626,
   60.7751,       606,
   60.7952,       615,
   60.8154,       598,
   60.8356,       632,
   60.8557,       585,
   60.8759,       599,
   60.8961,       605,
   60.9163,       575,
   60.9364,       613,
   60.9566,       581,
   60.9768,       572,
   60.9969,       623,
   61.0171,       533,
   61.0373,       614,
   61.0574,       563,
   61.0776,       576,
   61.0978,       635,
   61.1179,       582,
   61.1381,       575,
   61.1583,       610,
   61.1784,       627,
   61.1986,       566,
   61.2188,       609,
   61.2389,       612,
   61.2591,       590,
   61.2793,       554,
   61.2995,       576,
   61.3196,       606,
   61.3398,       604,
     61.36,       586,
   61.3801,       580,
   61.4003,       576,
   61.4205,       630,
   61.4406,       588,
   61.4608,       609,
    61.481,       608,
   61.5011,       608,
   61.5213,       586,
   61.5415,       588,
   61.5616,       583,
   61.5818,       612,
    61.602,       593,
   61.6221,       590,
   61.6423,       576,
   61.6625,       595,
   61.6827,       630,
   61.7028,       596,
    61.723,       594,
   61.7432,       610,
   61.7633,       584,
   61.7835,       573,
   61.8037,       555,
   61.8238,       596,
    61.844,       603,
   61.8642,       608,
   61.8843,       612,
   61.9045,       583,
   61.9247,       595,
   61.9448,       617,
    61.965,       588,
   61.9852,       565,
   62.0054,       557,
   62.0255,       628,
   62.0457,       611,
   62.0659,       589,
    62.086,       615,
   62.1062,       613,
   62.1264,       616,
   62.1465,       604,
   62.1667,       590,
   62.1869,       595,
    62.207,       596,
   62.2272,       581,
   62.2474,       597,
   62.2675,       603,
   62.2877,       582,
   62.3079,       605,
    62.328,       561,
   62.3482,       613,
   62.3684,       598,
   62.3886,       611,
   62.4087,       574,
   62.4289,       564,
   62.4491,       615,
   62.4692,       613,
   62.4894,       618,
   62.5096,       602,
   62.5297,       585,
   62.5499,       592,
   62.5701,       595,
   62.5902,       609,
   62.6104,       607,
   62.6306,       589,
   62.6507,       636,
   62.6709,       555,
   62.6911,       600,
   62.7112,       573,
   62.7314,       613,
   62.7516,       577,
   62.7718,       614,
   62.7919,       595,
   62.8121,       606,
   62.8323,       606,
   62.8524,       606,
   62.8726,       626,
   62.8928,       574,
   62.9129,       659,
   62.9331,       610,
   62.9533,       596,
   62.9734,       606,
   62.9936,       579,
   63.0138,       560,
   63.0339,       590,
   63.0541,       644,
   63.0743,       554,
   63.0945,       579,
   63.1146,       628,
   63.1348,       621,
    63.155,       578,
   63.1751,       589,
   63.1953,       632,
   63.2155,       597,
   63.2356,       578,
   63.2558,       631,
    63.276,       579,
   63.2961,       576,
   63.3163,       573,
   63.3365,       615,
   63.3566,       636,
   63.3768,       626,
    63.397,       598,
   63.4171,       568,
   63.4373,       610,
   63.4575,       611,
   63.4777,       557,
   63.4978,       608,
    63.518,       554,
   63.5382,       615,
   63.5583,       594,
   63.5785,       600,
   63.5987,       610,
   63.6188,       589,
    63.639,       589,
   63.6592,       539,
   63.6793,       593,
   63.6995,       612,
   63.7197,       610,
   63.7398,       592,
     63.76,       610,
   63.7802,       621,
   63.8003,       595,
   63.8205,       593,
   63.8407,       585,
   63.8609,       558,
    63.881,       563,
   63.9012,       591,
   63.9214,       585,
   63.9415,       556,
   63.9617,       589,
   63.9819,       648,
    64.002,       605,
   64.0222,       602,
   64.0424,       619,
   64.0625,       610,
   64.0827,       582,
   64.1029,       604,
    64.123,       601,
   64.1432,       556,
   64.1634,       582,
   64.1836,       631,
   64.2037,       630,
   64.2239,       619,
   64.2441,       598,
   64.2642,       570,
   64.2844,       603,
   64.3046,       576,
   64.3247,       534,
   64.3449,       547,
   64.3651,       556,
   64.3852,       616,
   64.4054,       615,
   64.4256,       586,
   64.4457,       577,
   64.4659,       608,
   64.4861,       580,
   64.5062,       608,
   64.5264,       559,
   64.5466,       584,
   64.5668,       596,
   64.5869,       586,
   64.6071,       573,
   64.6273,       612,
   64.6474,       583,
   64.6676,       570,
   64.6878,       578,
   64.7079,       569,
   64.7281,       619,
   64.7483,       623,
   64.7684,       568,
   64.7886,       565,
   64.8088,       610,
   64.8289,       584,
   64.8491,       595,
   64.8693,       613,
   64.8894,       596,
   64.9096,       629,
   64.9298,       567,
     64.95,       606,
   64.9701,       623,
   64.9903,       585,
   65.0105,       559,
   65.0306,       594,
   65.0508,       594,
    65.071,       597,
   65.0911,       597,
   65.1113,       624,
   65.1315,       562,
   65.1516,       571,
   65.1718,       614,
    65.192,       573,
   65.2121,       578,
   65.2323,       568,
   65.2525,       585,
   65.2727,       599,
   65.2928,       595,
    65.313,       569,
   65.3332,       563,
   65.3533,       575,
   65.3735,       598,
   65.3937,       548,
   65.4138,       595,
    65.434,       621,
   65.4542,       574,
   65.4743,       562,
   65.4945,       582,
   65.5147,       589,
   65.5348,       619,
    65.555,       563,
   65.5752,       585,
   65.5953,       603,
   65.6155,       568,
   65.6357,       559,
   65.6559,       589,
    65.676,       538,
   65.6962,       598,
   65.7164,       616,
   65.7365,       585,
   65.7567,       599,
   65.7769,       608,
    65.797,       582,
   65.8172,       567,
   65.8374,       579,
   65.8575,       642,
   65.8777,       561,
   65.8979,       622,
    65.918,       607,
   65.9382,       593,
   65.9584,       609,
   65.9786,       568,
   65.9987,       607,
   66.0189,       598,
   66.0391,       595,
   66.0592,       610,
   66.0794,       611,
   66.0996,       595,
   66.1197,       565,
   66.1399,       623,
   66.1601,       561,
   66.1802,       655,
   66.2004,       611,
   66.2206,       588,
   66.2407,       582,
   66.2609,       587,
   66.2811,       634,
   66.3012,       596,
   66.3214,       574,
   66.3416,       577,
   66.3618,       637,
   66.3819,       603,
   66.4021,       567,
   66.4223,       622,
   66.4424,       574,
   66.4626,       547,
   66.4828,       567,
   66.5029,       622,
   66.5231,       605,
   66.5433,       573,
   66.5634,       588,
   66.5836,       581,
   66.6038,       612,
   66.6239,       582,
   66.6441,       565,
   66.6643,       638,
   66.6844,       583,
   66.7046,       589,
   66.7248,       593,
    66.745,       580,
   66.7651,       584,
   66.7853,       600,
   66.8055,       576,
   66.8256,       628,
   66.8458,       603,
    66.866,       592,
   66.8861,       624,
   66.9063,       584,
   66.9265,       582,
   66.9466,       598,
   66.9668,       547,
    66.987,       576,
   67.0071,       614,
   67.0273,       572,
   67.0475,       571,
   67.0677,       560,
   67.0878,       587,
    67.108,       545,
   67.1282,       584,
   67.1483,       583,
   67.1685,       547,
   67.1887,       591,
   67.2088,       601,
    67.229,       595,
   67.2492,       553,
   67.2693,       597,
   67.2895,       614,
   67.3097,       601,
   67.3298,       599,
     67.35,       566,
   67.3702,       592,
   67.3903,       585,
   67.4105,       577,
   67.4307,       578,
   67.4509,       569,
    67.471,       608,
   67.4912,       591,
   67.5114,       570,
   67.5315,       591,
   67.5517,       592,
   67.5719,       595,
    67.592,       594,
   67.6122,       613,
   67.6324,       613,
   67.6525,       600,
   67.6727,       536,
   67.6929,       593,
    67.713,       599,
   67.7332,       595,
   67.7534,       603,
   67.7735,       589,
   67.7937,       570,
   67.8139,       587,
   67.8341,       576,
   67.8542,       616,
   67.8744,       570,
   67.8946,       601,
   67.9147,       603,
   67.9349,       581,
   67.9551,       611,
   67.9752,       566,
   67.9954,       542,
   68.0156,       604,
   68.0357,       581,
   68.0559,       638,
   68.0761,       607,
   68.0962,       639,
   68.1164,       603,
   68.1366,       565,
   68.1568,       574,
   68.1769,       593,
   68.1971,       603,
   68.2173,       584,
   68.2374,       562,
   68.2576,       583,
   68.2778,       596,
   68.2979,       570,
   68.3181,       599,
   68.3383,       595,
   68.3584,       602,
   68.3786,       603,
   68.3988,       603,
   68.4189,       545,
   68.4391,       628,
   68.4593,       577,
   68.4794,       602,
   68.4996,       590,
   68.5198,       578,
     68.54,       640,
   68.5601,       585,
   68.5803,       574,
   68.6005,       583,
   68.6206,       580,
   68.6408,       584,
    68.661,       557,
   68.6811,       592,
   68.7013,       582,
   68.7215,       580,
   68.7416,       544,
   68.7618,       566,
    68.782,       586,
   68.8021,       599,
   68.8223,       543,
   68.8425,       584,
   68.8626,       592,
   68.8828,       596,
    68.903,       605,
   68.9232,       600,
   68.9433,       556,
   68.9635,       574,
   68.9837,       597,
   69.0038,       628,
    69.024,       596,
   69.0442,       620,
   69.0643,       570,
   69.0845,       600,
   69.1047,       589,
   69.1248,       600,
    69.145,       569,
   69.1652,       609,
   69.1853,       600,
   69.2055,       590,
   69.2257,       600,
   69.2459,       618,
    69.266,       583,
   69.2862,       556,
   69.3064,       591,
   69.3265,       544,
   69.3467,       620,
   69.3669,       598,
    69.387,       600,
   69.4072,       609,
   69.4274,       576,
   69.4475,       561,
   69.4677,       656,
   69.4879,       619,
    69.508,       602,
   69.5282,       616,
   69.5484,       600,
   69.5685,       564,
   69.5887,       637,
   69.6089,       602,
   69.6291,       607,
   69.6492,       611,
   69.6694,       581,
   69.6896,       580,
   69.7097,       574,
   69.7299,       568,
   69.7501,       588,
   69.7702,       630,
   69.7904,       561,
   69.8106,       597,
   69.8307,       575,
   69.8509,       541,
   69.8711,       580,
   69.8912,       617,
   69.9114,       602,
   69.9316,       612,
   69.9517,       567,
   69.9719,       598,
   69.9921,       619,
   70.0123,       566,
   70.0324,       594,
   70.0526,       569,
   70.0728,       583,
   70.0929,       576,
   70.1131,       579,
   70.1333,       577,
   70.1534,       584,
   70.1736,       583,
   70.1938,       573,
   70.2139,       570,
   70.2341,       558,
   70.2543,       568,
   70.2744,       576,
   70.2946,       598,
   70.3148,       590,
    70.335,       603,
   70.3551,       607,
   70.3753,       601,
   70.3955,       575,
   70.4156,       563,
   70.4358,       609,
    70.456,       612,
   70.4761,       580,
   70.4963,       578,
   70.5165,       578,
   70.5366,       596,
   70.5568,       611,
    70.577,       617,
   70.5971,       587,
   70.6173,       592,
   70.6375,       603,
   70.6576,       564,
   70.6778,       552,
    70.698,       589,
   70.7182,       591,
   70.7383,       579,
   70.7585,       624,
   70.7787,       619,
   70.7988,       602,
    70.819,       593,
   70.8392,       587,
   70.8593,       586,
   70.8795,       602,
   70.8997,       603,
   70.9198,       579,
     70.94,       566,
   70.9602,       578,
   70.9803,       580,
   71.0005,       608,
   71.0207,       639,
   71.0409,       602,
    71.061,       585,
   71.0812,       596,
   71.1014,       623,
   71.1215,       548,
   71.1417,       609,
   71.1619,       608,
    71.182,       594,
   71.2022,       579,
   71.2224,       617,
   71.2425,       579,
   71.2627,       579,
   71.2829,       567,
    71.303,       551,
   71.3232,       572,
   71.3434,       576,
   71.3635,       582,
   71.3837,       583,
   71.4039,       623,
   71.4241,       605,
   71.4442,       614,
   71.4644,       596,
   71.4846,       629,
   71.5047,       621,
   71.5249,       626,
   71.5451,       592,
   71.5652,       611,
   71.5854,       658,
   71.6056,       585,
   71.6257,       604,
   71.6459,       569,
   71.6661,       578,
   71.6862,       604,
   71.7064,       578,
   71.7266,       611,
   71.7467,       575,
   71.7669,       615,
   71.7871,       624,
   71.8073,       652,
   71.8274,       585,
   71.8476,       620,
   71.8678,       595,
   71.8879,       600,
   71.9081,       589,
   71.9283,       600,
   71.9484,       609,
   71.9686,       573,
   71.9888,       601,
   72.0089,       597,
   72.0291,       595,
   72.0493,       589,
   72.0694,       614,
   72.0896,       572,
   72.1098,       596,
     72.13,       591,
   72.1501,       623,
   72.1703,       593,
   72.1905,       583,
   72.2106,       568,
   72.2308,       598,
    72.251,       588,
   72.2711,       596,
   72.2913,       595,
   72.3115,       609,
   72.3316,       600,
   72.3518,       581,
    72.372,       614,
   72.3921,       589,
   72.4123,       607,
   72.4325,       588,
   72.4526,       614,
   72.4728,       588,
    72.493,       576,
   72.5132,       577,
   72.5333,       598,
   72.5535,       622,
   72.5737,       598,
   72.5938,       556,
    72.614,       616,
   72.6342,       576,
   72.6543,       598,
   72.6745,       606,
   72.6947,       626,
   72.7148,       624,
    72.735,       575,
   72.7552,       616,
   72.7753,       592,
   72.7955,       589,
   72.8157,       590,
   72.8358,       606,
    72.856,       620,
   72.8762,       575,
   72.8964,       623,
   72.9165,       617,
   72.9367,       621,
   72.9569,       608,
    72.977,       602,
   72.9972,       573,
   73.0174,       620,
   73.0375,       607,
   73.0577,       652,
   73.0779,       634,
    73.098,       606,
   73.1182,       602,
   73.1384,       617,
   73.1585,       611,
   73.1787,       582,
   73.1989,       584,
   73.2191,       639,
   73.2392,       642,
   73.2594,       605,
   73.2796,       613,
   73.2997,       614,
   73.3199,       603,
   73.3401,       599,
   73.3602,       608,
   73.3804,       604,
   73.4006,       642,
   73.4207,       645,
   73.4409,       589,
   73.4611,       624,
   73.4812,       594,
   73.5014,       611,
   73.5216,       625,
   73.5417,       632,
   73.5619,       640,
   73.5821,       579,
   73.6023,       620,
   73.6224,       636,
   73.6426,       600,
   73.6628,       610,
   73.6829,       646,
   73.7031,       632,
   73.7233,       660,
   73.7434,       685,
   73.7636,       679,
   73.7838,       713,
   73.8039,       660,
   73.8241,       689,
   73.8443,       740,
   73.8644,       778,
   73.8846,       790,
   73.9048,       835,
   73.9249,       802,
   73.9451,       816,
   73.9653,       823,
   73.9855,       777,
   74.0056,       834,
   74.0258,       843,
    74.046,       808,
   74.0661,       893,
   74.0863,       970,
   74.1065,       958,
   74.1266,      1012,
   74.1468,      1264,
    74.167,      1447,
   74.1871,      1775,
   74.2073,      2420,
   74.2275,      3823,
   74.2476,      6087,
   74.2678,      9017,
    74.288,     10651,
   74.3082,      9360,
   74.3283,      6351,
   74.3485,      4028,
   74.3687,      2643,
   74.3888,      2105,
    74.409,      2028,
   74.4292,      2221,
   74.4493,      2964,
   74.4695,      4010,
   74.4897,      5277,
   74.5098,      5664,
     74.53,      4645,
   74.5502,      3268,
   74.5703,      2148,
   74.5905,      1566,
   74.6107,      1257,
   74.6308,      1034,
    74.651,      1034,
   74.6712,       880,
   74.6914,       860,
   74.7115,       834,
   74.7317,       807,
   74.7519,       822,
    74.772,       748,
   74.7922,       730,
   74.8124,       768,
   74.8325,       671,
   74.8527,       664,
   74.8729,       697,
    74.893,       698,
   74.9132,       657,
   74.9334,       662,
   74.9535,       651,
   74.9737,       674,
   74.9939,       688,
    75.014,       618,
   75.0342,       643,
   75.0544,       621,
   75.0746,       663,
   75.0947,       599,
   75.1149,       646,
   75.1351,       589,
   75.1552,       595,
   75.1754,       623,
   75.1956,       670,
   75.2157,       606,
   75.2359,       662,
   75.2561,       670,
   75.2762,       626,
   75.2964,       615,
   75.3166,       633,
   75.3367,       618,
   75.3569,       620,
   75.3771,       635,
   75.3973,       613,
   75.4174,       612,
   75.4376,       673,
   75.4578,       638,
   75.4779,       663,
   75.4981,       639,
   75.5183,       599,
   75.5384,       610,
   75.5586,       603,
   75.5788,       590,
   75.5989,       632,
   75.6191,       628,
   75.6393,       606,
   75.6594,       632,
   75.6796,       577,
   75.6998,       610,
   75.7199,       645,
   75.7401,       571,
   75.7603,       564,
   75.7805,       644,
   75.8006,       599,
   75.8208,       618,
    75.841,       582,
   75.8611,       625,
   75.8813,       603,
   75.9015,       600,
   75.9216,       613,
   75.9418,       590,
    75.962,       623,
   75.9821,       601,
   76.0023,       628,
   76.0225,       608,
   76.0426,       591,
   76.0628,       647,
    76.083,       579,
   76.1032,       574,
   76.1233,       572,
   76.1435,       582,
   76.1637,       575,
   76.1838,       581,
    76.204,       611,
   76.2242,       578,
   76.2443,       621,
   76.2645,       608,
   76.2847,       623,
   76.3048,       565,
    76.325,       555,
   76.3452,       622,
   76.3653,       625,
   76.3855,       602,
   76.4057,       584,
   76.4258,       607,
    76.446,       601,
   76.4662,       609,
   76.4864,       540,
   76.5065,       626,
   76.5267,       567,
   76.5469,       641,
    76.567,       590,
   76.5872,       627,
   76.6074,       623,
   76.6275,       572,
   76.6477,       620,
   76.6679,       589,
    76.688,       555,
   76.7082,       620,
   76.7284,       610,
   76.7485,       620,
   76.7687,       619,
   76.7889,       601,
    76.809,       567,
   76.8292,       610,
   76.8494,       620,
   76.8696,       616,
   76.8897,       551,
   76.9099,       594,
   76.9301,       577,
   76.9502,       561,
   76.9704,       634,
   76.9906,       591,
   77.0107,       605,
   77.0309,       601,
   77.0511,       616,
   77.0712,       601,
   77.0914,       615,
   77.1116,       606,
   77.1317,       609,
   77.1519,       606,
   77.1721,       560,
   77.1923,       581,
   77.2124,       581,
   77.2326,       617,
   77.2528,       570,
   77.2729,       594,
   77.2931,       599,
   77.3133,       591,
   77.3334,       635,
   77.3536,       635,
   77.3738,       610,
   77.3939,       603,
   77.4141,       590,
   77.4343,       649,
   77.4544,       588,
   77.4746,       595,
   77.4948,       643,
   77.5149,       605,
   77.5351,       606,
   77.5553,       598,
   77.5755,       611,
   77.5956,       558,
   77.6158,       605,
    77.636,       644,
   77.6561,       606,
   77.6763,       558,
   77.6965,       552,
   77.7166,       604,
   77.7368,       613,
    77.757,       587,
   77.7771,       616,
   77.7973,       632,
   77.8175,       589,
   77.8376,       641,
   77.8578,       568,
    77.878,       592,
   77.8981,       587,
   77.9183,       605,
   77.9385,       605,
   77.9587,       575,
   77.9788,       591,
    77.999,       548,
