;RAW4.00
[RawHeader]
Date=11/26/2025
EstimatedTotalTime=426.6
FurtherDQLReading=0
HardwareIndicator=65519
MeasuredTotalTime=4.29444
MeasurementFlag=1
NumberOfMeasuredRanges=1
NumberOfRanges=1
Time=03:00:37

[VarInfo]
Type=USER
Flags=0
Value=Lab Manager

[VarInfo]
Type=SAMPLEID
Flags=0
Value=Commander Sample ID

[VarInfo]
Type=COMMENT
Flags=0
Value=

[VarInfo]
Type=UTF
Flags=0
Value=

[VarInfo]
Type=CREATOR
Flags=0
Value=V5Converter

[VarInfo]
Type=CREATOR_VERSION
Flags=0
Value=4.4.16.0

[HardwareConfiguration]
AbsorptionFactor=9999
ActivateAbsorber=0
Alpha1=1.5406
Alpha2=1.54439
AlphaAverage=1.54184
AlphaRatio=0.5
Analyzer=0
Anode=Cu
AntiScatteringSlit=9999
BeamOpticsFlags=0
Beta=1.39222
BetaRelativeIntensity=0
DeactivateAbsorber=0
DetectorSlit=9999
DivergenceSlit=9999
GoniometerControl=0
GoniometerDiameter=282
GoniometerModel=256
GoniometerStage=7
Monochromator=0
NearSampleSlit=9999
PrimarySollerSlit=9999
SampleChanger=0
SecondSollerSlit=9999
SynchronousAxis=0
ThinFilmAttachment=9999
WaveUnit=A

[RangeHeader]
ActuallyUsedLambda=1.54184
AdditionalDetectorMask=257
DataRecordLength=4
DelayTime=0
DisplayPlaneNumber=0
EstimatedScanTime=427
ExtraParametersMask=0
GeneratorCurrent=10
GeneratorVoltage=30
Increment=0.0201685
Increment3=0
NumberOfCompletedData=1885
NumberOfCounts=1
NumberOfDetectors=0
NumberOfDrives=3
NumberOfEncoderDrives=0
NumberOfMeasuredData=1885
NumberOfVaryingParameters=0
RangeStartTime=0
RotationSpeed=0
ScanMode=1
ScanType=Locked Coupled
SimulatedMeasConditions=0
SlitChangerIn=0
SmootingWidth=0
Start=40.0015
Steps=1885
SynchronousRotation=0
Time=33

[VarInfo]
Type=PSD_DISCRIM
Flags=0
Value=0.11;0.5

[VarInfo]
Type=OPTICS_V5
Flags=0
Value=H4sIAAAAAAAEAO1d63KjOhJ+Fda/zqmtBIPtXKaITzm2J+OaOHbFTnKmtrZcBORYZzC4AOey//d99hl2X2x1QViIS8C3JBN+TCaodWm6+2vUUkfS/nieW9IjcD3o2GcV5bBakYBtOCa0H84qS396oBxV/mhqF44NnTnwgdt25gvHBrbf0X1dQq1t78uzB88qM99ffJHlp6enw6faoeM+yGq1qsh/9i9HxgzM9QNoe75uG6AStjJfb1WRbqEH7y1wpc/BWWXFR0joAM9w4cInL/Bj4UHLsSW+3oXrLBc9NBZ6t3Pgojcb3P8FDH+o+7OzitwBj9AAMt+CrxUfl1Lblu55QRehTORzoM8XqLDt2L4ObeBy/coBc6yHluEvdYtxoR6o1ePT02O5h8TkLue4tzhrTW2EZGjqqBswQr3oFvyXjl+9OdUtD2hyGln7c259hcAyrwHqHhq4EDFpA/KbJ8lNjfKD1ToCFipvdm00JDA1OUbR6Btwou9Ab2HpL824AjQ5tXK8m+bF4OrHhPzodEft64TGrBVWDOsoPhpP1bBWhrxWvISy1r0hIUP+4r8skMLHrm78xG8sGODQhXPdfSHkZBMMakgD9GxISBvSeHkPOIFIQeOidilHx44baRI9r5mSRmyEDSxUYBJZ3blu/xy4JnCvAfYzAL0wsdX3b8s5NVnMwIfj6+8T9KPV/l7IxHm5Jhp5z0OvBh9BE+kGCS98DAk920dCZMIVSikeHA9SJulgmhwp1bAq2ZMXfZT4B2LSAxc+QFu3ogSlwl6OWi7Ssb/0moPwnSLFGmsYPPedJdIj0qJQrgWE0MJ5JCOdEXICmjFtjmnJUA7J0tRxpRHQLUBtYA3AytxYcejGiMm4JZa46kmmLG0LrhEWBa3xcus++8A2MZDfDYZpCWdMkQKtj5nwHfcltGVFk+OFGseMJxH2qHoYWND7cnJosmJN5ku1uCnh1+H65qyTKx3Y545jAR1NEG5s6BPpdiDSG56bXcI59IlYwiKvWdVk7knrgKm+tPxb3VoCboigVyQ96CPXTshnFewlKri/oQta5l9LD8GnYEuZYx67mbHTJoqe6ZblPK0cjVCOarZnwPgJzFUVVqC1ESPOHKsWvx33pNH5Zl7erhEyxkg2xVq1lr7TdoHug6HrLIDrvzAWEyiR9/eIRfdMhLKr5fweuE21rslCEdaQRS08UPF//xMyUSUc9B0TNG8Quqbos4xMnTwz90Y+PzEHluy7tuWt5HgP/ND5vNXOHBXjLvaN2aNbYuh5A79Evm3IJvErCL6JJ23LP418rD3OPSHRTOHDEjnla/gw85sIdabECnU0BoKwUKWYS+vrz5fAfvBnTbXRwKJhj2nOjrJISkNktZevObqMVm/q5DL4SnFwGS02cm5pFninPwKqkpa1mOmKYIUieVuWOJh2nCVqyWzxf//ehzWm2Nxw9uJBQ7dIeQJnTA/KYaNePXrNFtfo7ca2MPfItOjcf/WMZelYS+paugfVBtErK9H60Ibz5bx5oBwenx4fndaUWv3kSK0pjePu32vVE4S4oAZGIvklvWZQ4W0Rs4b0UpC0Rk/7QJiajTD10yOsXjvdJsRYdyXGNhLfFkDGuto1yh6Bqz+IoV6M/ulxppzUt4kz1l2Js43EtwWcsa52jLNz4OupIMPET46w2qmqqttD2Kq7EmEbiW9jhK262jHCrvGaRirECHVXGHuvCFutth02NsJWrKMSVWsKbh08xTrZCZK+OsbSG7gQ2D5ZHRSgJJK3tspG1g4H057tH9XfH6CibEVXr/OjKbkXhfRCBYDfqOeDOWLs0nmABl3VvJn0rm5bl73OpP2tN9TkFYkJfAye/WbPftQtiMQzg4uVjCJaIvW07+CFjI1lEf6uyTEWsnm67F2lsnIJbSARW0kbWtlk6OEgY+yhA20/e3B1k8GZLoaD0auqCHeKD6S58wgk35HmwJjpNrYKCTmTxd/SeKxl8/ienF2WXefzdFk9bOTm6N5Lz546UqiqhAVciZbr3FOQY3BWIVUkVBrdJr+ZtC6H31rRcrGRhEeyyEjkXXKxo0bYURPZUVPYUbPYUQuzEywL8PxEyoQBQloib5PW7UUWe0HrokySmCrg8D78PeybkkWGzrvjVjIvuH4+FiIbUQEDqBXeyxN46LJSkY3uZbffvRqnSMV2TCAFbaXVSDlkQmfBvNq4EkHsASVZZdetcW+QpTTSOp+8YlOLgL9pYnk4ToQicvl10J4MrpMZJONJkeZyfMe6Ed+xvgA2skTfcYU8TFacvPmcsQFLZ8dr7r82tXQiP3O7dSw/voYXlO4q5vl5u6WEjcypLxqFfRNqVSHyCL4FKaFHctihVBMCjFp1f7FErbF+MBEXRsEvZLo55TW19tJ1sT+LmlpQuitTm7f2YWpolHD6sQ1TaySFsh/E0uKy2LulDZ0nkgHOmxQp25WV3aUEnW+xcHMnRJr5lluqhymm+EkWW+4491hde7Ul3ssWbV9+7YtfJA0UTQyNGXBfyVbbPA8ud74bklUw60j9YgWfilQ/I4dzraYmBmuZ2QhiKJW9qxqLdLI3h6IxR/YytzAXT1vD42MIIXVJnC4nR8cylyaJ7OZRhxZeJcCPHu2eWH2ZQFkmUJYJlGUCZZlA+fE2xcsEyvezJV4mUP6aCCsTKN8TxsoEyl8VZ2UC5XvCWZlA+ashrEygfE8IKxMoywTKMoGyTKAsEyjLBMoygbJMoCwTKMsEyjKBskygLBMoywTKMoGyTKAsEyjLBMoygbJMoHzr+KNMoCwTKD9tAiXLkUS/iumT7KzT+Cmg4tm7GScqd+cL/4UkG4arGcVOT+72h4PRhP4scnoyGTg0xcTzk2U+BzLzcGMl7XBjde+HGw8WbefceR5MR45lATfhiGNKyDjkmKsg/WbotmTQQ8ElNJZEifQE7N/XgX9k+LhXSSBnuYaE6hunwkb7FPSZfOxxRGTIPPKL8PePe2KymphYK0bAR+scevtxXAin6Q2diJrmRGpv50S+wmdgEkNlcw/RmVjQz3IliCz1U2CAaRv4kdXICV5EJGb6ELHy5h6E61FQZYr/YA2o98gntQ/sOmq5XMfxeudlE7OmVzSsTJpYMhZe0hcRy1SR/jGf/zPDjH/DR/7fA2QfErQ9hAVgol98R9I5hWWaMq5mhBds4KeJUp0oaQYcIb5mwIVtN52ZmPP5qH/5US30lx930PRnYm4HLtvZktP8/WxBxzgL44DNsuvjPeVdZqh+7nWGuODWWWeI97KTtI5vABumgB1a+LnBszXslNBZz+i3gpzt3wSirjOzGenzhQXuZgBYY/QC/KUgIkkjH65UJ0ChmfamMj+F+lCxGJtFbxiJ1dIisfpGkRjhMR6HvT9h3thLD5hkeHHgLInKwm1g17oJl16CldWVYB+fXrg3mE494KdZfesZevz3Iay2B1ceYybnbh1ywVU1LSlVPTypn6qNRkNN8LvHjcOTRv24dqQqvK8VhNAM7mETbitc+w7DEUCRgJl9i2FYh7v9roNCXwNnMmzhLkORh4SYKLFGsfsMwz42ifVFRj70nYaF9FrM/4zwzYaj4jcbRuW787sNw+F2cbvhyRss3uHlOks3wMyxzMQtgMsX+xm8pBxzcfnj6s/ujy654bCjSsOZ7olX4OYEsRyOEwezQMpa3mDWKOO8X3k4Wj2jProvYAvX6KYzLmrzl7v28CTPUlxNiU9Yi8wL0ecUu0XdWrmWfniNJk2pxn6HJHazGl4xZ9PpjyfkXwFHw4ba6R6gstmscZebgP09bgIKCIswkLYN2N/zNmAmj6JSs3YC+59rJ1Cp53Ii1c+wFVhGSkUjpbRAqXF4dHrSUJRqPWmBqqEcHldP68dqfQeB0sontAHGieA9hcKI4+SmzLSadMAw70kjnLfkkW8dVkPLMIDnOS4E3hoRE+Mi7j2jlLwRUvyl1/ekrIcPHRqtqcpiLudicNWekB9FHA7lZ+eh0Ri4qHQnkdHp3mdFwxkkShPAfO0EGXBRYgTUqKlErdE1Wb0CGJXZGHSdNqGDKCsJ1TJnP6vqMuJUZpxuDuAUxgVFpsREEgUYMFu+rxszPNBZ5WDPRwluc5pzmitr4SQ+y+l5TBQhKMMCjfMcZLfIWj48ALPjYkzSv8ZE3eHvWs9sIu2S3oNHTCEVRwtgwGnwt6KsUpyC4BLvvcgEK46DYs5u+K03mpAfRZxdFKHbnGBVi0yvQisOP5lEYfRDEPwf22IqXU7pckqXI7qcECvsd+8VLsZPznhGTjB6jZVIzZz8ZA+dc9yig6ZEJvFifFQxXo8YAd9H0PIkfi6GHAXNPKxILbzB7vVR6AbplI5NtLGOuVT/5i2e1Rn4EFu+VFtBkewhB6uqmiyUa3yqI/WAkWUTj/6JxSqYYK6D6Pv/u9RXv2COAAA=

[PSD]
ActualTwoTheta=9999
FirstUsedChannel=0
FixedPSD=0
PSDOpening=4.99171
PSDType=5

[Drive]
DriveFlags=1
DriveName=2Theta
DriveNumber=2
DriveOffset=0
OffsetIndex=0
OscillationAmplitude=0
OscillationSpeed=0
StartPosition=40.0015

[Drive]
DriveFlags=1
DriveName=Theta
DriveNumber=1
DriveOffset=0
OffsetIndex=0
OscillationAmplitude=0
OscillationSpeed=0
StartPosition=20.0007

[Drive]
DriveFlags=1
DriveName=Phi
DriveNumber=3
DriveOffset=0
OffsetIndex=0
OscillationAmplitude=0
OscillationSpeed=0
StartPosition=0

[Data]
     Angle,       PSD,
   40.0015,       668,
   40.0217,       613,
   40.0418,       593,
    40.062,       631,
   40.0822,       672,
   40.1023,       646,
   40.1225,       651,
   40.1427,       617,
   40.1628,       625,
    40.183,       684,
   40.2032,       632,
   40.2233,       599,
   40.2435,       666,
   40.2637,       631,
   40.2838,       603,
    40.304,       635,
   40.3242,       632,
   40.3444,       638,
   40.3645,       624,
   40.3847,       668,
   40.4049,       669,
    40.425,       619,
   40.4452,       635,
   40.4654,       604,
   40.4855,       634,
   40.5057,       626,
   40.5259,       644,
    40.546,       670,
   40.5662,       658,
   40.5864,       647,
   40.6065,       625,
   40.6267,       636,
   40.6469,       652,
   40.6671,       600,
   40.6872,       616,
   40.7074,       664,
   40.7276,       649,
   40.7477,       654,
   40.7679,       654,
   40.7881,       679,
   40.8082,       661,
   40.8284,       681,
   40.8486,       658,
   40.8687,       661,
   40.8889,       658,
   40.9091,       676,
   40.9292,       652,
   40.9494,       643,
   40.9696,       737,
   40.9897,       706,
   41.0099,       670,
   41.0301,       681,
   41.0503,       685,
   41.0704,       690,
   41.0906,       707,
   41.1108,       655,
   41.1309,       669,
   41.1511,       671,
   41.1713,       690,
   41.1914,       651,
   41.2116,       658,
   41.2318,       709,
   41.2519,       694,
   41.2721,       669,
   41.2923,       650,
   41.3124,       636,
   41.3326,       652,
   41.3528,       705,
   41.3729,       683,
   41.3931,       687,
   41.4133,       665,
   41.4335,       666,
   41.4536,       670,
   41.4738,       668,
    41.494,       713,
   41.5141,       717,
   41.5343,       701,
   41.5545,       714,
   41.5746,       688,
   41.5948,       660,
    41.615,       680,
   41.6351,       620,
   41.6553,       661,
   41.6755,       688,
   41.6956,       675,
   41.7158,       672,
    41.736,       763,
   41.7562,       725,
   41.7763,       799,
   41.7965,       726,
   41.8167,       760,
   41.8368,       760,
    41.857,       775,
   41.8772,       754,
   41.8973,       813,
   41.9175,       772,
   41.9377,       803,
   41.9578,       799,
    41.978,       840,
   41.9982,       749,
   42.0183,       787,
   42.0385,       811,
   42.0587,       852,
   42.0788,       798,
    42.099,       799,
   42.1192,       821,
   42.1394,       838,
   42.1595,       860,
   42.1797,       777,
   42.1999,       831,
     42.22,       780,
   42.2402,       817,
   42.2604,       846,
   42.2805,       881,
   42.3007,       881,
   42.3209,       784,
    42.341,       854,
   42.3612,       874,
   42.3814,       863,
   42.4015,       837,
   42.4217,       876,
   42.4419,       896,
    42.462,       898,
   42.4822,       888,
   42.5024,       862,
   42.5226,       913,
   42.5427,       926,
   42.5629,       919,
   42.5831,       900,
   42.6032,       926,
   42.6234,       960,
   42.6436,       951,
   42.6637,       951,
   42.6839,       969,
   42.7041,      1011,
   42.7242,      1019,
   42.7444,      1050,
   42.7646,      1080,
   42.7847,      1098,
   42.8049,      1093,
   42.8251,      1155,
   42.8453,      1214,
   42.8654,      1207,
   42.8856,      1310,
   42.9058,      1295,
   42.9259,      1404,
   42.9461,      1476,
   42.9663,      1535,
   42.9864,      1726,
   43.0066,      1723,
   43.0268,      1880,
   43.0469,      2026,
   43.0671,      2201,
   43.0873,      2395,
   43.1074,      2688,
   43.1276,      2860,
   43.1478,      3294,
   43.1679,      3690,
   43.1881,      4294,
   43.2083,      4727,
   43.2285,      5528,
   43.2486,      6450,
   43.2688,      7723,
    43.289,      9708,
   43.3091,     13169,
   43.3293,     20293,
   43.3495,     29923,
   43.3696,     32525,
   43.3898,     23121,
     43.41,     16357,
   43.4301,     14744,
   43.4503,     17305,
   43.4705,     19935,
   43.4906,     17685,
   43.5108,     12019,
    43.531,      8304,
   43.5511,      6569,
   43.5713,      5517,
   43.5915,      4808,
   43.6117,      4078,
   43.6318,      3739,
    43.652,      3087,
   43.6722,      2904,
   43.6923,      2623,
   43.7125,      2358,
   43.7327,      2217,
   43.7528,      1969,
    43.773,      1849,
   43.7932,      1698,
   43.8133,      1662,
   43.8335,      1560,
   43.8537,      1422,
   43.8738,      1460,
    43.894,      1399,
   43.9142,      1332,
   43.9344,      1191,
   43.9545,      1198,
   43.9747,      1195,
   43.9949,      1156,
    44.015,      1137,
   44.0352,      1111,
   44.0554,      1106,
   44.0755,      1055,
   44.0957,      1036,
   44.1159,      1030,
    44.136,       994,
   44.1562,       966,
   44.1764,       986,
   44.1965,       978,
   44.2167,       898,
   44.2369,       929,
    44.257,       959,
   44.2772,       958,
   44.2974,       893,
   44.3176,       915,
   44.3377,       882,
   44.3579,       938,
   44.3781,       897,
   44.3982,       939,
   44.4184,       879,
   44.4386,       865,
   44.4587,       912,
   44.4789,       837,
   44.4991,       836,
   44.5192,       840,
   44.5394,       845,
   44.5596,       838,
   44.5797,       859,
   44.5999,       845,
   44.6201,       772,
   44.6402,       846,
   44.6604,       833,
   44.6806,       816,
   44.7008,       768,
   44.7209,       783,
   44.7411,       799,
   44.7613,       766,
   44.7814,       796,
   44.8016,       857,
   44.8218,       777,
   44.8419,       776,
   44.8621,       778,
   44.8823,       768,
   44.9024,       788,
   44.9226,       801,
   44.9428,       770,
   44.9629,       840,
   44.9831,       732,
   45.0033,       768,
   45.0235,       780,
   45.0436,       800,
   45.0638,       788,
    45.084,       749,
   45.1041,       778,
   45.1243,       747,
   45.1445,       778,
   45.1646,       788,
   45.1848,       746,
    45.205,       786,
   45.2251,       783,
   45.2453,       797,
   45.2655,       742,
   45.2856,       768,
   45.3058,       726,
    45.326,       785,
   45.3461,       768,
   45.3663,       744,
   45.3865,       744,
   45.4067,       735,
   45.4268,       800,
    45.447,       767,
   45.4672,       789,
   45.4873,       745,
   45.5075,       737,
   45.5277,       721,
   45.5478,       751,
    45.568,       750,
   45.5882,       787,
   45.6083,       752,
   45.6285,       773,
   45.6487,       791,
   45.6688,       769,
    45.689,       746,
   45.7092,       706,
   45.7294,       756,
   45.7495,       747,
   45.7697,       724,
   45.7899,       730,
     45.81,       711,
   45.8302,       761,
   45.8504,       740,
   45.8705,       743,
   45.8907,       735,
   45.9109,       760,
    45.931,       728,
   45.9512,       722,
   45.9714,       741,
   45.9915,       779,
   46.0117,       701,
   46.0319,       710,
    46.052,       754,
   46.0722,       742,
   46.0924,       749,
   46.1126,       728,
   46.1327,       736,
   46.1529,       729,
   46.1731,       703,
   46.1932,       701,
   46.2134,       714,
   46.2336,       727,
   46.2537,       719,
   46.2739,       765,
   46.2941,       734,
   46.3142,       695,
   46.3344,       658,
   46.3546,       742,
   46.3747,       679,
   46.3949,       719,
   46.4151,       728,
   46.4352,       749,
   46.4554,       718,
   46.4756,       723,
   46.4958,       738,
   46.5159,       693,
   46.5361,       706,
   46.5563,       752,
   46.5764,       696,
   46.5966,       645,
   46.6168,       719,
   46.6369,       742,
   46.6571,       730,
   46.6773,       674,
   46.6974,       696,
   46.7176,       683,
   46.7378,       721,
   46.7579,       670,
   46.7781,       736,
   46.7983,       730,
   46.8185,       680,
   46.8386,       716,
   46.8588,       692,
    46.879,       710,
   46.8991,       711,
   46.9193,       711,
   46.9395,       663,
   46.9596,       674,
   46.9798,       712,
        47,       723,
   47.0201,       713,
   47.0403,       683,
   47.0605,       741,
   47.0806,       717,
   47.1008,       681,
    47.121,       696,
   47.1411,       723,
   47.1613,       697,
   47.1815,       719,
   47.2017,       722,
   47.2218,       715,
    47.242,       724,
   47.2622,       714,
   47.2823,       710,
   47.3025,       653,
   47.3227,       703,
   47.3428,       665,
    47.363,       733,
   47.3832,       717,
   47.4033,       682,
   47.4235,       713,
   47.4437,       667,
   47.4638,       736,
    47.484,       712,
   47.5042,       705,
   47.5243,       698,
   47.5445,       735,
   47.5647,       725,
   47.5849,       703,
    47.605,       752,
   47.6252,       692,
   47.6454,       669,
   47.6655,       699,
   47.6857,       674,
   47.7059,       706,
    47.726,       683,
   47.7462,       691,
   47.7664,       696,
   47.7865,       673,
   47.8067,       705,
   47.8269,       657,
    47.847,       724,
   47.8672,       740,
   47.8874,       685,
   47.9076,       727,
   47.9277,       699,
   47.9479,       710,
   47.9681,       710,
   47.9882,       731,
   48.0084,       686,
   48.0286,       699,
   48.0487,       698,
   48.0689,       711,
   48.0891,       724,
   48.1092,       684,
   48.1294,       707,
   48.1496,       703,
   48.1697,       747,
   48.1899,       712,
   48.2101,       753,
   48.2302,       675,
   48.2504,       679,
   48.2706,       720,
   48.2908,       740,
   48.3109,       717,
   48.3311,       730,
   48.3513,       701,
   48.3714,       685,
   48.3916,       739,
   48.4118,       713,
   48.4319,       679,
   48.4521,       707,
   48.4723,       682,
   48.4924,       716,
   48.5126,       638,
   48.5328,       717,
   48.5529,       764,
   48.5731,       710,
   48.5933,       718,
   48.6134,       720,
   48.6336,       722,
   48.6538,       696,
    48.674,       757,
   48.6941,       712,
   48.7143,       694,
   48.7345,       739,
   48.7546,       713,
   48.7748,       716,
    48.795,       754,
   48.8151,       782,
   48.8353,       744,
   48.8555,       729,
   48.8756,       729,
   48.8958,       757,
    48.916,       694,
   48.9361,       772,
   48.9563,       731,
   48.9765,       751,
   48.9967,       749,
   49.0168,       726,
    49.037,       769,
   49.0572,       762,
   49.0773,       769,
   49.0975,       712,
   49.1177,       786,
   49.1378,       734,
    49.158,       765,
   49.1782,       812,
   49.1983,       783,
   49.2185,       732,
   49.2387,       765,
   49.2588,       779,
    49.279,       770,
   49.2992,       739,
   49.3193,       749,
   49.3395,       782,
   49.3597,       773,
   49.3799,       778,
      49.4,       810,
   49.4202,       821,
   49.4404,       771,
   49.4605,       771,
   49.4807,       800,
   49.5009,       753,
    49.521,       781,
   49.5412,       798,
   49.5614,       840,
   49.5815,       842,
   49.6017,       853,
   49.6219,       845,
    49.642,       859,
   49.6622,       886,
   49.6824,       889,
   49.7025,       878,
   49.7227,       915,
   49.7429,       872,
   49.7631,       935,
   49.7832,       907,
   49.8034,       919,
   49.8236,       981,
   49.8437,       926,
   49.8639,      1011,
   49.8841,      1021,
   49.9042,       995,
   49.9244,      1045,
   49.9446,      1094,
   49.9647,      1105,
   49.9849,      1180,
   50.0051,      1168,
   50.0252,      1153,
   50.0454,      1243,
   50.0656,      1255,
   50.0858,      1311,
   50.1059,      1349,
   50.1261,      1475,
   50.1463,      1527,
   50.1664,      1565,
   50.1866,      1661,
   50.2068,      1754,
   50.2269,      1851,
   50.2471,      2001,
   50.2673,      2004,
   50.2874,      2110,
   50.3076,      2242,
   50.3278,      2428,
   50.3479,      2564,
   50.3681,      2677,
   50.3883,      3013,
   50.4084,      3422,
   50.4286,      4092,
   50.4488,      5257,
    50.469,      7189,
   50.4891,      8234,
   50.5093,      7426,
   50.5295,      5729,
   50.5496,      4473,
   50.5698,      4332,
     50.59,      4662,
   50.6101,      5088,
   50.6303,      5285,
   50.6505,      4313,
   50.6706,      3518,
   50.6908,      2969,
    50.711,      2588,
   50.7311,      2297,
   50.7513,      2142,
   50.7715,      2060,
   50.7917,      1934,
   50.8118,      1728,
    50.832,      1580,
   50.8522,      1555,
   50.8723,      1466,
   50.8925,      1432,
   50.9127,      1366,
   50.9328,      1265,
    50.953,      1269,
   50.9732,      1256,
   50.9933,      1216,
   51.0135,      1058,
   51.0337,      1115,
   51.0538,      1033,
    51.074,      1080,
   51.0942,      1004,
   51.1143,      1009,
   51.1345,       966,
   51.1547,       923,
   51.1749,       942,
    51.195,       928,
   51.2152,       916,
   51.2354,       876,
   51.2555,       831,
   51.2757,       863,
   51.2959,       830,
    51.316,       820,
   51.3362,       799,
   51.3564,       746,
   51.3765,       774,
   51.3967,       768,
   51.4169,       807,
    51.437,       754,
   51.4572,       748,
   51.4774,       753,
   51.4975,       751,
   51.5177,       758,
   51.5379,       755,
   51.5581,       761,
   51.5782,       753,
   51.5984,       720,
   51.6186,       723,
   51.6387,       704,
   51.6589,       670,
   51.6791,       716,
   51.6992,       759,
   51.7194,       765,
   51.7396,       723,
   51.7597,       693,
   51.7799,       700,
   51.8001,       698,
   51.8202,       715,
   51.8404,       696,
   51.8606,       720,
   51.8808,       718,
   51.9009,       689,
   51.9211,       696,
   51.9413,       753,
   51.9614,       706,
   51.9816,       655,
   52.0018,       638,
   52.0219,       677,
   52.0421,       747,
   52.0623,       726,
   52.0824,       750,
   52.1026,       733,
   52.1228,       724,
   52.1429,       687,
   52.1631,       667,
   52.1833,       681,
   52.2034,       650,
   52.2236,       664,
   52.2438,       679,
    52.264,       667,
   52.2841,       675,
   52.3043,       698,
   52.3245,       708,
   52.3446,       715,
   52.3648,       642,
    52.385,       706,
   52.4051,       663,
   52.4253,       684,
   52.4455,       652,
   52.4656,       665,
   52.4858,       643,
    52.506,       686,
   52.5261,       685,
   52.5463,       698,
   52.5665,       685,
   52.5866,       643,
   52.6068,       673,
    52.627,       649,
   52.6472,       673,
   52.6673,       670,
   52.6875,       742,
   52.7077,       631,
   52.7278,       655,
    52.748,       732,
   52.7682,       659,
   52.7883,       671,
   52.8085,       687,
   52.8287,       622,
   52.8488,       691,
    52.869,       632,
   52.8892,       696,
   52.9093,       671,
   52.9295,       709,
   52.9497,       664,
   52.9699,       635,
     52.99,       642,
   53.0102,       683,
   53.0304,       670,
   53.0505,       634,
   53.0707,       623,
   53.0909,       656,
    53.111,       645,
   53.1312,       682,
   53.1514,       676,
   53.1715,       679,
   53.1917,       623,
   53.2119,       689,
    53.232,       664,
   53.2522,       652,
   53.2724,       674,
   53.2925,       641,
   53.3127,       674,
   53.3329,       666,
   53.3531,       621,
   53.3732,       614,
   53.3934,       640,
   53.4136,       664,
   53.4337,       658,
   53.4539,       664,
   53.4741,       642,
   53.4942,       659,
   53.5144,       661,
   53.5346,       689,
   53.5547,       697,
   53.5749,       654,
   53.5951,       658,
   53.6152,       672,
   53.6354,       656,
   53.6556,       669,
   53.6757,       715,
   53.6959,       603,
   53.7161,       707,
   53.7363,       634,
   53.7564,       644,
   53.7766,       654,
   53.7968,       615,
   53.8169,       656,
   53.8371,       671,
   53.8573,       650,
   53.8774,       676,
   53.8976,       643,
   53.9178,       684,
   53.9379,       605,
   53.9581,       641,
   53.9783,       708,
   53.9984,       631,
   54.0186,       658,
   54.0388,       647,
    54.059,       641,
   54.0791,       662,
   54.0993,       618,
   54.1195,       694,
   54.1396,       698,
   54.1598,       667,
     54.18,       684,
   54.2001,       604,
   54.2203,       649,
   54.2405,       614,
   54.2606,       645,
   54.2808,       645,
    54.301,       606,
   54.3211,       666,
   54.3413,       672,
   54.3615,       619,
   54.3816,       612,
   54.4018,       634,
    54.422,       621,
   54.4422,       669,
   54.4623,       691,
   54.4825,       616,
   54.5027,       651,
   54.5228,       578,
    54.543,       671,
   54.5632,       688,
   54.5833,       615,
   54.6035,       673,
   54.6237,       667,
   54.6438,       605,
    54.664,       680,
   54.6842,       612,
   54.7043,       622,
   54.7245,       637,
   54.7447,       669,
   54.7648,       629,
    54.785,       647,
   54.8052,       626,
   54.8254,       649,
   54.8455,       589,
   54.8657,       632,
   54.8859,       638,
    54.906,       645,
   54.9262,       599,
   54.9464,       599,
   54.9665,       639,
   54.9867,       648,
   55.0069,       656,
    55.027,       652,
   55.0472,       673,
   55.0674,       653,
   55.0875,       684,
   55.1077,       613,
   55.1279,       629,
   55.1481,       606,
   55.1682,       636,
   55.1884,       628,
   55.2086,       680,
   55.2287,       667,
   55.2489,       663,
   55.2691,       664,
   55.2892,       635,
   55.3094,       708,
   55.3296,       661,
   55.3497,       656,
   55.3699,       628,
   55.3901,       634,
   55.4102,       661,
   55.4304,       664,
   55.4506,       683,
   55.4707,       592,
   55.4909,       642,
   55.5111,       627,
   55.5313,       652,
   55.5514,       614,
   55.5716,       648,
   55.5918,       633,
   55.6119,       610,
   55.6321,       610,
   55.6523,       665,
   55.6724,       623,
   55.6926,       613,
   55.7128,       627,
   55.7329,       684,
   55.7531,       661,
   55.7733,       616,
   55.7934,       623,
   55.8136,       643,
   55.8338,       683,
    55.854,       625,
   55.8741,       655,
   55.8943,       628,
   55.9145,       623,
   55.9346,       616,
   55.9548,       623,
    55.975,       707,
   55.9951,       660,
   56.0153,       650,
   56.0355,       644,
   56.0556,       647,
   56.0758,       627,
    56.096,       672,
   56.1161,       627,
   56.1363,       660,
   56.1565,       635,
   56.1766,       653,
   56.1968,       623,
    56.217,       619,
   56.2372,       623,
   56.2573,       642,
   56.2775,       641,
   56.2977,       661,
   56.3178,       587,
    56.338,       669,
   56.3582,       650,
   56.3783,       653,
   56.3985,       626,
   56.4187,       674,
   56.4388,       634,
    56.459,       620,
   56.4792,       610,
   56.4993,       678,
   56.5195,       644,
   56.5397,       650,
   56.5598,       605,
     56.58,       632,
   56.6002,       619,
   56.6204,       646,
   56.6405,       673,
   56.6607,       659,
   56.6809,       592,
    56.701,       602,
   56.7212,       652,
   56.7414,       623,
   56.7615,       654,
   56.7817,       648,
   56.8019,       639,
    56.822,       635,
   56.8422,       635,
   56.8624,       649,
   56.8825,       598,
   56.9027,       642,
   56.9229,       654,
   56.9431,       633,
   56.9632,       668,
   56.9834,       633,
   57.0036,       658,
   57.0237,       640,
   57.0439,       620,
   57.0641,       624,
   57.0842,       661,
   57.1044,       659,
   57.1246,       658,
   57.1447,       611,
   57.1649,       654,
   57.1851,       653,
   57.2052,       648,
   57.2254,       635,
   57.2456,       627,
   57.2657,       642,
   57.2859,       635,
   57.3061,       612,
   57.3263,       630,
   57.3464,       599,
   57.3666,       658,
   57.3868,       663,
   57.4069,       615,
   57.4271,       621,
   57.4473,       640,
   57.4674,       637,
   57.4876,       634,
   57.5078,       671,
   57.5279,       632,
   57.5481,       615,
   57.5683,       604,
   57.5884,       606,
   57.6086,       633,
   57.6288,       619,
   57.6489,       629,
   57.6691,       618,
   57.6893,       646,
   57.7095,       643,
   57.7296,       616,
   57.7498,       581,
     57.77,       619,
   57.7901,       639,
   57.8103,       632,
   57.8305,       592,
   57.8506,       676,
   57.8708,       625,
    57.891,       644,
   57.9111,       698,
   57.9313,       629,
   57.9515,       637,
   57.9716,       626,
   57.9918,       639,
    58.012,       622,
   58.0322,       614,
   58.0523,       614,
   58.0725,       626,
   58.0927,       625,
   58.1128,       614,
    58.133,       645,
   58.1532,       606,
   58.1733,       612,
   58.1935,       645,
   58.2137,       647,
   58.2338,       636,
    58.254,       601,
   58.2742,       633,
   58.2943,       608,
   58.3145,       622,
   58.3347,       616,
   58.3548,       608,
    58.375,       630,
   58.3952,       612,
   58.4154,       626,
   58.4355,       616,
   58.4557,       636,
   58.4759,       647,
    58.496,       589,
   58.5162,       634,
   58.5364,       627,
   58.5565,       617,
   58.5767,       606,
   58.5969,       624,
    58.617,       597,
   58.6372,       587,
   58.6574,       643,
   58.6775,       621,
   58.6977,       626,
   58.7179,       610,
    58.738,       645,
   58.7582,       632,
   58.7784,       648,
   58.7986,       598,
   58.8187,       648,
   58.8389,       684,
   58.8591,       617,
   58.8792,       651,
   58.8994,       660,
   58.9196,       610,
   58.9397,       685,
   58.9599,       645,
   58.9801,       643,
   59.0002,       611,
   59.0204,       652,
   59.0406,       618,
   59.0607,       632,
   59.0809,       630,
   59.1011,       604,
   59.1213,       589,
   59.1414,       614,
   59.1616,       662,
   59.1818,       623,
   59.2019,       633,
   59.2221,       631,
   59.2423,       615,
   59.2624,       638,
   59.2826,       615,
   59.3028,       614,
   59.3229,       629,
   59.3431,       610,
   59.3633,       635,
   59.3834,       624,
   59.4036,       615,
   59.4238,       593,
   59.4439,       661,
   59.4641,       603,
   59.4843,       628,
   59.5045,       651,
   59.5246,       647,
   59.5448,       609,
    59.565,       632,
   59.5851,       650,
   59.6053,       643,
   59.6255,       668,
   59.6456,       637,
   59.6658,       639,
    59.686,       654,
   59.7061,       632,
   59.7263,       640,
   59.7465,       630,
   59.7666,       588,
   59.7868,       627,
    59.807,       632,
   59.8271,       633,
   59.8473,       617,
   59.8675,       620,
   59.8877,       632,
   59.9078,       631,
    59.928,       657,
   59.9482,       641,
   59.9683,       624,
   59.9885,       655,
   60.0087,       599,
   60.0288,       593,
    60.049,       617,
   60.0692,       634,
   60.0893,       641,
   60.1095,       677,
   60.1297,       585,
   60.1498,       618,
     60.17,       609,
   60.1902,       649,
   60.2104,       652,
   60.2305,       645,
   60.2507,       611,
   60.2709,       608,
    60.291,       631,
   60.3112,       632,
   60.3314,       607,
   60.3515,       615,
   60.3717,       643,
   60.3919,       647,
    60.412,       627,
   60.4322,       671,
   60.4524,       679,
   60.4725,       626,
   60.4927,       627,
   60.5129,       660,
    60.533,       604,
   60.5532,       597,
   60.5734,       609,
   60.5936,       585,
   60.6137,       624,
   60.6339,       657,
   60.6541,       640,
   60.6742,       623,
   60.6944,       618,
   60.7146,       608,
   60.7347,       615,
   60.7549,       621,
   60.7751,       637,
   60.7952,       591,
   60.8154,       602,
   60.8356,       613,
   60.8557,       610,
   60.8759,       635,
   60.8961,       597,
   60.9163,       642,
   60.9364,       640,
   60.9566,       604,
   60.9768,       650,
   60.9969,       623,
   61.0171,       605,
   61.0373,       626,
   61.0574,       653,
   61.0776,       635,
   61.0978,       595,
   61.1179,       655,
   61.1381,       599,
   61.1583,       664,
   61.1784,       588,
   61.1986,       638,
   61.2188,       580,
   61.2389,       640,
   61.2591,       623,
   61.2793,       599,
   61.2995,       635,
   61.3196,       617,
   61.3398,       633,
     61.36,       591,
   61.3801,       597,
   61.4003,       609,
   61.4205,       606,
   61.4406,       615,
   61.4608,       614,
    61.481,       610,
   61.5011,       586,
   61.5213,       608,
   61.5415,       614,
   61.5616,       595,
   61.5818,       621,
    61.602,       570,
   61.6221,       610,
   61.6423,       605,
   61.6625,       580,
   61.6827,       628,
   61.7028,       613,
    61.723,       599,
   61.7432,       600,
   61.7633,       608,
   61.7835,       665,
   61.8037,       598,
   61.8238,       628,
    61.844,       585,
   61.8642,       640,
   61.8843,       588,
   61.9045,       633,
   61.9247,       551,
   61.9448,       631,
    61.965,       628,
   61.9852,       605,
   62.0054,       630,
   62.0255,       607,
   62.0457,       656,
   62.0659,       617,
    62.086,       616,
   62.1062,       605,
   62.1264,       630,
   62.1465,       602,
   62.1667,       609,
   62.1869,       656,
    62.207,       604,
   62.2272,       616,
   62.2474,       618,
   62.2675,       564,
   62.2877,       603,
   62.3079,       608,
    62.328,       603,
   62.3482,       642,
   62.3684,       632,
   62.3886,       636,
   62.4087,       593,
   62.4289,       600,
   62.4491,       577,
   62.4692,       585,
   62.4894,       597,
   62.5096,       602,
   62.5297,       589,
   62.5499,       626,
   62.5701,       627,
   62.5902,       614,
   62.6104,       614,
   62.6306,       629,
   62.6507,       577,
   62.6709,       602,
   62.6911,       618,
   62.7112,       583,
   62.7314,       601,
   62.7516,       618,
   62.7718,       582,
   62.7919,       611,
   62.8121,       639,
   62.8323,       614,
   62.8524,       601,
   62.8726,       658,
   62.8928,       547,
   62.9129,       631,
   62.9331,       618,
   62.9533,       602,
   62.9734,       614,
   62.9936,       608,
   63.0138,       604,
   63.0339,       588,
   63.0541,       642,
   63.0743,       597,
   63.0945,       628,
   63.1146,       626,
   63.1348,       649,
    63.155,       609,
   63.1751,       630,
   63.1953,       610,
   63.2155,       678,
   63.2356,       667,
   63.2558,       600,
    63.276,       633,
   63.2961,       572,
   63.3163,       614,
   63.3365,       644,
   63.3566,       593,
   63.3768,       609,
    63.397,       602,
   63.4171,       592,
   63.4373,       613,
   63.4575,       603,
   63.4777,       568,
   63.4978,       618,
    63.518,       635,
   63.5382,       586,
   63.5583,       674,
   63.5785,       578,
   63.5987,       604,
   63.6188,       603,
    63.639,       606,
   63.6592,       641,
   63.6793,       613,
   63.6995,       648,
   63.7197,       581,
   63.7398,       622,
     63.76,       605,
   63.7802,       654,
   63.8003,       586,
   63.8205,       634,
   63.8407,       602,
   63.8609,       642,
    63.881,       601,
   63.9012,       600,
   63.9214,       610,
   63.9415,       621,
   63.9617,       623,
   63.9819,       614,
    64.002,       616,
   64.0222,       627,
   64.0424,       632,
   64.0625,       634,
   64.0827,       639,
   64.1029,       574,
    64.123,       639,
   64.1432,       633,
   64.1634,       606,
   64.1836,       596,
   64.2037,       579,
   64.2239,       586,
   64.2441,       647,
   64.2642,       621,
   64.2844,       610,
   64.3046,       626,
   64.3247,       561,
   64.3449,       648,
   64.3651,       612,
   64.3852,       657,
   64.4054,       656,
   64.4256,       645,
   64.4457,       595,
   64.4659,       634,
   64.4861,       629,
   64.5062,       605,
   64.5264,       612,
   64.5466,       610,
   64.5668,       602,
   64.5869,       615,
   64.6071,       587,
   64.6273,       580,
   64.6474,       630,
   64.6676,       647,
   64.6878,       635,
   64.7079,       643,
   64.7281,       611,
   64.7483,       621,
   64.7684,       628,
   64.7886,       631,
   64.8088,       611,
   64.8289,       595,
   64.8491,       613,
   64.8693,       631,
   64.8894,       613,
   64.9096,       614,
   64.9298,       615,
     64.95,       580,
   64.9701,       664,
   64.9903,       599,
   65.0105,       579,
   65.0306,       656,
   65.0508,       604,
    65.071,       587,
   65.0911,       616,
   65.1113,       588,
   65.1315,       588,
   65.1516,       586,
   65.1718,       584,
    65.192,       666,
   65.2121,       562,
   65.2323,       622,
   65.2525,       636,
   65.2727,       630,
   65.2928,       586,
    65.313,       612,
   65.3332,       588,
   65.3533,       626,
   65.3735,       630,
   65.3937,       642,
   65.4138,       615,
    65.434,       617,
   65.4542,       603,
   65.4743,       654,
   65.4945,       621,
   65.5147,       581,
   65.5348,       606,
    65.555,       609,
   65.5752,       599,
   65.5953,       592,
   65.6155,       623,
   65.6357,       628,
   65.6559,       611,
    65.676,       609,
   65.6962,       598,
   65.7164,       596,
   65.7365,       611,
   65.7567,       602,
   65.7769,       621,
    65.797,       636,
   65.8172,       646,
   65.8374,       642,
   65.8575,       586,
   65.8777,       566,
   65.8979,       605,
    65.918,       605,
   65.9382,       613,
   65.9584,       650,
   65.9786,       628,
   65.9987,       646,
   66.0189,       634,
   66.0391,       636,
   66.0592,       625,
   66.0794,       594,
   66.0996,       608,
   66.1197,       594,
   66.1399,       601,
   66.1601,       624,
   66.1802,       643,
   66.2004,       595,
   66.2206,       590,
   66.2407,       610,
   66.2609,       603,
   66.2811,       632,
   66.3012,       616,
   66.3214,       615,
   66.3416,       585,
   66.3618,       670,
   66.3819,       653,
   66.4021,       627,
   66.4223,       634,
   66.4424,       615,
   66.4626,       596,
   66.4828,       642,
   66.5029,       623,
   66.5231,       614,
   66.5433,       615,
   66.5634,       616,
   66.5836,       589,
   66.6038,       649,
   66.6239,       602,
   66.6441,       647,
   66.6643,       672,
   66.6844,       605,
   66.7046,       604,
   66.7248,       624,
    66.745,       636,
   66.7651,       576,
   66.7853,       608,
   66.8055,       631,
   66.8256,       570,
   66.8458,       637,
    66.866,       601,
   66.8861,       618,
   66.9063,       620,
   66.9265,       630,
   66.9466,       652,
   66.9668,       565,
    66.987,       611,
   67.0071,       612,
   67.0273,       588,
   67.0475,       563,
   67.0677,       666,
   67.0878,       611,
    67.108,       594,
   67.1282,       599,
   67.1483,       595,
   67.1685,       614,
   67.1887,       608,
   67.2088,       595,
    67.229,       594,
   67.2492,       614,
   67.2693,       613,
   67.2895,       611,
   67.3097,       633,
   67.3298,       612,
     67.35,       656,
   67.3702,       609,
   67.3903,       589,
   67.4105,       583,
   67.4307,       582,
   67.4509,       606,
    67.471,       582,
   67.4912,       631,
   67.5114,       605,
   67.5315,       602,
   67.5517,       611,
   67.5719,       609,
    67.592,       581,
   67.6122,       639,
   67.6324,       569,
   67.6525,       617,
   67.6727,       638,
   67.6929,       624,
    67.713,       614,
   67.7332,       567,
   67.7534,       605,
   67.7735,       613,
   67.7937,       597,
   67.8139,       617,
   67.8341,       572,
   67.8542,       615,
   67.8744,       605,
   67.8946,       581,
   67.9147,       607,
   67.9349,       596,
   67.9551,       602,
   67.9752,       602,
   67.9954,       645,
   68.0156,       605,
   68.0357,       619,
   68.0559,       631,
   68.0761,       607,
   68.0962,       603,
   68.1164,       629,
   68.1366,       607,
   68.1568,       599,
   68.1769,       580,
   68.1971,       634,
   68.2173,       631,
   68.2374,       667,
   68.2576,       614,
   68.2778,       636,
   68.2979,       632,
   68.3181,       613,
   68.3383,       622,
   68.3584,       617,
   68.3786,       604,
   68.3988,       602,
   68.4189,       637,
   68.4391,       578,
   68.4593,       605,
   68.4794,       613,
   68.4996,       579,
   68.5198,       588,
     68.54,       594,
   68.5601,       579,
   68.5803,       576,
   68.6005,       634,
   68.6206,       589,
   68.6408,       599,
    68.661,       590,
   68.6811,       611,
   68.7013,       621,
   68.7215,       601,
   68.7416,       598,
   68.7618,       619,
    68.782,       609,
   68.8021,       614,
   68.8223,       616,
   68.8425,       620,
   68.8626,       609,
   68.8828,       641,
    68.903,       580,
   68.9232,       605,
   68.9433,       594,
   68.9635,       658,
   68.9837,       611,
   69.0038,       600,
    69.024,       622,
   69.0442,       622,
   69.0643,       625,
   69.0845,       586,
   69.1047,       595,
   69.1248,       559,
    69.145,       583,
   69.1652,       598,
   69.1853,       635,
   69.2055,       634,
   69.2257,       640,
   69.2459,       581,
    69.266,       593,
   69.2862,       651,
   69.3064,       627,
   69.3265,       596,
   69.3467,       592,
   69.3669,       595,
    69.387,       580,
   69.4072,       558,
   69.4274,       653,
   69.4475,       579,
   69.4677,       566,
   69.4879,       607,
    69.508,       658,
   69.5282,       585,
   69.5484,       661,
   69.5685,       621,
   69.5887,       607,
   69.6089,       614,
   69.6291,       616,
   69.6492,       561,
   69.6694,       612,
   69.6896,       580,
   69.7097,       590,
   69.7299,       572,
   69.7501,       603,
   69.7702,       602,
   69.7904,       559,
   69.8106,       590,
   69.8307,       594,
   69.8509,       565,
   69.8711,       608,
   69.8912,       546,
   69.9114,       615,
   69.9316,       586,
   69.9517,       623,
   69.9719,       604,
   69.9921,       568,
   70.0123,       619,
   70.0324,       585,
   70.0526,       648,
   70.0728,       590,
   70.0929,       637,
   70.1131,       600,
   70.1333,       627,
   70.1534,       590,
   70.1736,       571,
   70.1938,       606,
   70.2139,       640,
   70.2341,       623,
   70.2543,       604,
   70.2744,       616,
   70.2946,       580,
   70.3148,       608,
    70.335,       606,
   70.3551,       562,
   70.3753,       615,
   70.3955,       619,
   70.4156,       595,
   70.4358,       608,
    70.456,       575,
   70.4761,       607,
   70.4963,       618,
   70.5165,       577,
   70.5366,       592,
   70.5568,       669,
    70.577,       617,
   70.5971,       619,
   70.6173,       609,
   70.6375,       571,
   70.6576,       588,
   70.6778,       575,
    70.698,       629,
   70.7182,       632,
   70.7383,       606,
   70.7585,       589,
   70.7787,       585,
   70.7988,       580,
    70.819,       595,
   70.8392,       634,
   70.8593,       618,
   70.8795,       627,
   70.8997,       582,
   70.9198,       601,
     70.94,       587,
   70.9602,       626,
   70.9803,       608,
   71.0005,       626,
   71.0207,       610,
   71.0409,       619,
    71.061,       572,
   71.0812,       627,
   71.1014,       621,
   71.1215,       603,
   71.1417,       595,
   71.1619,       591,
    71.182,       595,
   71.2022,       659,
   71.2224,       583,
   71.2425,       628,
   71.2627,       648,
   71.2829,       621,
    71.303,       648,
   71.3232,       645,
   71.3434,       639,
   71.3635,       606,
   71.3837,       579,
   71.4039,       605,
   71.4241,       665,
   71.4442,       586,
   71.4644,       696,
   71.4846,       642,
   71.5047,       628,
   71.5249,       644,
   71.5451,       648,
   71.5652,       632,
   71.5854,       594,
   71.6056,       634,
   71.6257,       592,
   71.6459,       649,
   71.6661,       636,
   71.6862,       610,
   71.7064,       610,
   71.7266,       598,
   71.7467,       603,
   71.7669,       640,
   71.7871,       622,
   71.8073,       631,
   71.8274,       655,
   71.8476,       639,
   71.8678,       621,
   71.8879,       562,
   71.9081,       609,
   71.9283,       582,
   71.9484,       620,
   71.9686,       627,
   71.9888,       634,
   72.0089,       636,
   72.0291,       629,
   72.0493,       676,
   72.0694,       599,
   72.0896,       613,
   72.1098,       582,
     72.13,       624,
   72.1501,       619,
   72.1703,       657,
   72.1905,       688,
   72.2106,       622,
   72.2308,       614,
    72.251,       653,
   72.2711,       639,
   72.2913,       607,
   72.3115,       637,
   72.3316,       601,
   72.3518,       646,
    72.372,       620,
   72.3921,       597,
   72.4123,       636,
   72.4325,       650,
   72.4526,       642,
   72.4728,       621,
    72.493,       617,
   72.5132,       598,
   72.5333,       617,
   72.5535,       631,
   72.5737,       590,
   72.5938,       663,
    72.614,       639,
   72.6342,       580,
   72.6543,       607,
   72.6745,       656,
   72.6947,       588,
   72.7148,       641,
    72.735,       695,
   72.7552,       598,
   72.7753,       662,
   72.7955,       617,
   72.8157,       629,
   72.8358,       605,
    72.856,       602,
   72.8762,       628,
   72.8964,       623,
   72.9165,       663,
   72.9367,       636,
   72.9569,       626,
    72.977,       640,
   72.9972,       663,
   73.0174,       644,
   73.0375,       611,
   73.0577,       685,
   73.0779,       673,
    73.098,       646,
   73.1182,       656,
   73.1384,       664,
   73.1585,       630,
   73.1787,       667,
   73.1989,       624,
   73.2191,       680,
   73.2392,       665,
   73.2594,       661,
   73.2796,       679,
   73.2997,       655,
   73.3199,       683,
   73.3401,       669,
   73.3602,       673,
   73.3804,       666,
   73.4006,       665,
   73.4207,       680,
   73.4409,       680,
   73.4611,       692,
   73.4812,       664,
   73.5014,       641,
   73.5216,       687,
   73.5417,       745,
   73.5619,       682,
   73.5821,       720,
   73.6023,       732,
   73.6224,       757,
   73.6426,       741,
   73.6628,       748,
   73.6829,       787,
   73.7031,       782,
   73.7233,       790,
   73.7434,       857,
   73.7636,       895,
   73.7838,       844,
   73.8039,       884,
   73.8241,       895,
   73.8443,       972,
   73.8644,       937,
   73.8846,       997,
   73.9048,       973,
   73.9249,      1055,
   73.9451,      1136,
   73.9653,      1151,
   73.9855,      1218,
   74.0056,      1246,
   74.0258,      1365,
    74.046,      1472,
   74.0661,      1799,
   74.0863,      2096,
   74.1065,      3120,
   74.1266,      4568,
   74.1468,      6296,
    74.167,      6767,
   74.1871,      5447,
   74.2073,      3752,
   74.2275,      2651,
   74.2476,      2067,
   74.2678,      1916,
    74.288,      1802,
   74.3082,      1980,
   74.3283,      2433,
   74.3485,      3151,
   74.3687,      3849,
   74.3888,      3755,
    74.409,      2898,
   74.4292,      2165,
   74.4493,      1730,
   74.4695,      1378,
   74.4897,      1228,
   74.5098,      1164,
     74.53,      1101,
   74.5502,      1037,
   74.5703,      1017,
   74.5905,       936,
   74.6107,       867,
   74.6308,       826,
    74.651,       899,
   74.6712,       852,
   74.6914,       786,
   74.7115,       783,
   74.7317,       795,
   74.7519,       727,
    74.772,       749,
   74.7922,       763,
   74.8124,       720,
   74.8325,       770,
   74.8527,       753,
   74.8729,       686,
    74.893,       719,
   74.9132,       673,
   74.9334,       707,
   74.9535,       689,
   74.9737,       717,
   74.9939,       647,
    75.014,       720,
   75.0342,       638,
   75.0544,       627,
   75.0746,       703,
   75.0947,       656,
   75.1149,       644,
   75.1351,       677,
   75.1552,       673,
   75.1754,       624,
   75.1956,       686,
   75.2157,       642,
   75.2359,       641,
   75.2561,       639,
   75.2762,       644,
   75.2964,       664,
   75.3166,       645,
   75.3367,       639,
   75.3569,       601,
   75.3771,       588,
   75.3973,       603,
   75.4174,       613,
   75.4376,       680,
   75.4578,       596,
   75.4779,       639,
   75.4981,       614,
   75.5183,       627,
   75.5384,       680,
   75.5586,       651,
   75.5788,       634,
   75.5989,       657,
   75.6191,       566,
   75.6393,       626,
   75.6594,       590,
   75.6796,       621,
   75.6998,       656,
   75.7199,       654,
   75.7401,       670,
   75.7603,       612,
   75.7805,       623,
   75.8006,       638,
   75.8208,       638,
    75.841,       631,
   75.8611,       618,
   75.8813,       643,
   75.9015,       657,
   75.9216,       632,
   75.9418,       664,
    75.962,       655,
   75.9821,       640,
   76.0023,       673,
   76.0225,       631,
   76.0426,       593,
   76.0628,       638,
    76.083,       629,
   76.1032,       584,
   76.1233,       598,
   76.1435,       599,
   76.1637,       602,
   76.1838,       594,
    76.204,       634,
   76.2242,       593,
   76.2443,       611,
   76.2645,       624,
   76.2847,       652,
   76.3048,       635,
    76.325,       636,
   76.3452,       630,
   76.3653,       617,
   76.3855,       615,
   76.4057,       637,
   76.4258,       642,
    76.446,       604,
   76.4662,       639,
   76.4864,       618,
   76.5065,       600,
   76.5267,       655,
   76.5469,       577,
    76.567,       620,
   76.5872,       641,
   76.6074,       617,
   76.6275,       649,
   76.6477,       652,
   76.6679,       647,
    76.688,       616,
   76.7082,       629,
   76.7284,       640,
   76.7485,       616,
   76.7687,       597,
   76.7889,       600,
    76.809,       643,
   76.8292,       592,
   76.8494,       593,
   76.8696,       663,
   76.8897,       637,
   76.9099,       628,
   76.9301,       603,
   76.9502,       622,
   76.9704,       640,
   76.9906,       584,
   77.0107,       620,
   77.0309,       606,
   77.0511,       596,
   77.0712,       612,
   77.0914,       654,
   77.1116,       563,
   77.1317,       619,
   77.1519,       632,
   77.1721,       637,
   77.1923,       600,
   77.2124,       613,
   77.2326,       642,
   77.2528,       645,
   77.2729,       588,
   77.2931,       620,
   77.3133,       591,
   77.3334,       615,
   77.3536,       675,
   77.3738,       639,
   77.3939,       648,
   77.4141,       568,
   77.4343,       643,
   77.4544,       603,
   77.4746,       657,
   77.4948,       623,
   77.5149,       626,
   77.5351,       659,
   77.5553,       613,
   77.5755,       582,
   77.5956,       580,
   77.6158,       621,
    77.636,       594,
   77.6561,       596,
   77.6763,       608,
   77.6965,       570,
   77.7166,       606,
   77.7368,       595,
    77.757,       557,
   77.7771,       615,
   77.7973,       643,
   77.8175,       625,
   77.8376,       609,
   77.8578,       585,
    77.878,       592,
   77.8981,       653,
   77.9183,       590,
   77.9385,       613,
   77.9587,       603,
   77.9788,       610,
    77.999,       641,
