;RAW4.00
[RawHeader]
Date=11/26/2025
EstimatedTotalTime=426.6
FurtherDQLReading=0
HardwareIndicator=65519
MeasuredTotalTime=4.29503
MeasurementFlag=1
NumberOfMeasuredRanges=1
NumberOfRanges=1
Time=17:30:25

[VarInfo]
Type=USER
Flags=0
Value=Lab Manager

[VarInfo]
Type=SAMPLEID
Flags=0
Value=Commander Sample ID

[VarInfo]
Type=COMMENT
Flags=0
Value=

[VarInfo]
Type=UTF
Flags=0
Value=

[VarInfo]
Type=CREATOR
Flags=0
Value=V5Converter

[VarInfo]
Type=CREATOR_VERSION
Flags=0
Value=4.4.16.0

[HardwareConfiguration]
AbsorptionFactor=9999
ActivateAbsorber=0
Alpha1=1.5406
Alpha2=1.54439
AlphaAverage=1.54184
AlphaRatio=0.5
Analyzer=0
Anode=Cu
AntiScatteringSlit=9999
BeamOpticsFlags=0
Beta=1.39222
BetaRelativeIntensity=0
DeactivateAbsorber=0
DetectorSlit=9999
DivergenceSlit=9999
GoniometerControl=0
GoniometerDiameter=282
GoniometerModel=256
GoniometerStage=7
Monochromator=0
NearSampleSlit=9999
PrimarySollerSlit=9999
SampleChanger=0
SecondSollerSlit=9999
SynchronousAxis=0
ThinFilmAttachment=9999
WaveUnit=A

[RangeHeader]
ActuallyUsedLambda=1.54184
AdditionalDetectorMask=257
DataRecordLength=4
DelayTime=0
DisplayPlaneNumber=0
EstimatedScanTime=427
ExtraParametersMask=0
GeneratorCurrent=10
GeneratorVoltage=30
Increment=0.0201685
Increment3=0
NumberOfCompletedData=1885
NumberOfCounts=1
NumberOfDetectors=0
NumberOfDrives=3
NumberOfEncoderDrives=0
NumberOfMeasuredData=1885
NumberOfVaryingParameters=0
RangeStartTime=0
RotationSpeed=0
ScanMode=1
ScanType=Locked Coupled
SimulatedMeasConditions=0
SlitChangerIn=0
SmootingWidth=0
Start=40.0015
Steps=1885
SynchronousRotation=0
Time=33

[VarInfo]
Type=PSD_DISCRIM
Flags=0
Value=0.11;0.5

[VarInfo]
Type=OPTICS_V5
Flags=0
Value=H4sIAAAAAAAEAO1d63KjOhJ+Fda/zqmtBIPtXKaITzm2J+OaOHbFTnKmtrZcBORYZzC4AOey//d99hl2X2x1QViIS8C3JBN+TCaodWm6+2vUUkfS/nieW9IjcD3o2GcV5bBakYBtOCa0H84qS396oBxV/mhqF44NnTnwgdt25gvHBrbf0X1dQq1t78uzB88qM99ffJHlp6enw6faoeM+yGq1qsh/9i9HxgzM9QNoe75uG6AStjJfb1WRbqEH7y1wpc/BWWXFR0joAM9w4cInL/Bj4UHLsSW+3oXrLBc9NBZ6t3Pgojcb3P8FDH+o+7OzitwBj9AAMt+CrxUfl1Lblu55QRehTORzoM8XqLDt2L4ObeBy/coBc6yHluEvdYtxoR6o1ePT02O5h8TkLue4tzhrTW2EZGjqqBswQr3oFvyXjl+9OdUtD2hyGln7c259hcAyrwHqHhq4EDFpA/KbJ8lNjfKD1ToCFipvdm00JDA1OUbR6Btwou9Ab2HpL824AjQ5tXK8m+bF4OrHhPzodEft64TGrBVWDOsoPhpP1bBWhrxWvISy1r0hIUP+4r8skMLHrm78xG8sGODQhXPdfSHkZBMMakgD9GxISBvSeHkPOIFIQeOidilHx44baRI9r5mSRmyEDSxUYBJZ3blu/xy4JnCvAfYzAL0wsdX3b8s5NVnMwIfj6+8T9KPV/l7IxHm5Jhp5z0OvBh9BE+kGCS98DAk920dCZMIVSikeHA9SJulgmhwp1bAq2ZMXfZT4B2LSAxc+QFu3ogSlwl6OWi7Ssb/0moPwnSLFGmsYPPedJdIj0qJQrgWE0MJ5JCOdEXICmjFtjmnJUA7J0tRxpRHQLUBtYA3AytxYcejGiMm4JZa46kmmLG0LrhEWBa3xcus++8A2MZDfDYZpCWdMkQKtj5nwHfcltGVFk+OFGseMJxH2qHoYWND7cnJosmJN5ku1uCnh1+H65qyTKx3Y545jAR1NEG5s6BPpdiDSG56bXcI59IlYwiKvWdVk7knrgKm+tPxb3VoCboigVyQ96CPXTshnFewlKri/oQta5l9LD8GnYEuZYx67mbHTJoqe6ZblPK0cjVCOarZnwPgJzFUVVqC1ESPOHKsWvx33pNH5Zl7erhEyxkg2xVq1lr7TdoHug6HrLIDrvzAWEyiR9/eIRfdMhLKr5fweuE21rslCEdaQRS08UPF//xMyUSUc9B0TNG8Quqbos4xMnTwz90Y+PzEHluy7tuWt5HgP/ND5vNXOHBXjLvaN2aNbYuh5A79Evm3IJvErCL6JJ23LP418rD3OPSHRTOHDEjnla/gw85sIdabECnU0BoKwUKWYS+vrz5fAfvBnTbXRwKJhj2nOjrJISkNktZevObqMVm/q5DL4SnFwGS02cm5pFninPwKqkpa1mOmKYIUieVuWOJh2nCVqyWzxf//ehzWm2Nxw9uJBQ7dIeQJnTA/KYaNePXrNFtfo7ca2MPfItOjcf/WMZelYS+paugfVBtErK9H60Ibz5bx5oBwenx4fndaUWv3kSK0pjePu32vVE4S4oAZGIvklvWZQ4W0Rs4b0UpC0Rk/7QJiajTD10yOsXjvdJsRYdyXGNhLfFkDGuto1yh6Bqz+IoV6M/ulxppzUt4kz1l2Js43EtwWcsa52jLNz4OupIMPET46w2qmqqttD2Kq7EmEbiW9jhK262jHCrvGaRirECHVXGHuvCFutth02NsJWrKMSVWsKbh08xTrZCZK+OsbSG7gQ2D5ZHRSgJJK3tspG1g4H057tH9XfH6CibEVXr/OjKbkXhfRCBYDfqOeDOWLs0nmABl3VvJn0rm5bl73OpP2tN9TkFYkJfAye/WbPftQtiMQzg4uVjCJaIvW07+CFjI1lEf6uyTEWsnm67F2lsnIJbSARW0kbWtlk6OEgY+yhA20/e3B1k8GZLoaD0auqCHeKD6S58wgk35HmwJjpNrYKCTmTxd/SeKxl8/ienF2WXefzdFk9bOTm6N5Lz546UqiqhAVciZbr3FOQY3BWIVUkVBrdJr+ZtC6H31rRcrGRhEeyyEjkXXKxo0bYURPZUVPYUbPYUQuzEywL8PxEyoQBQloib5PW7UUWe0HrokySmCrg8D78PeybkkWGzrvjVjIvuH4+FiIbUQEDqBXeyxN46LJSkY3uZbffvRqnSMV2TCAFbaXVSDlkQmfBvNq4EkHsASVZZdetcW+QpTTSOp+8YlOLgL9pYnk4ToQicvl10J4MrpMZJONJkeZyfMe6Ed+xvgA2skTfcYU8TFacvPmcsQFLZ8dr7r82tXQiP3O7dSw/voYXlO4q5vl5u6WEjcypLxqFfRNqVSHyCL4FKaFHctihVBMCjFp1f7FErbF+MBEXRsEvZLo55TW19tJ1sT+LmlpQuitTm7f2YWpolHD6sQ1TaySFsh/E0uKy2LulDZ0nkgHOmxQp25WV3aUEnW+xcHMnRJr5lluqhymm+EkWW+4491hde7Ul3ssWbV9+7YtfJA0UTQyNGXBfyVbbPA8ud74bklUw60j9YgWfilQ/I4dzraYmBmuZ2QhiKJW9qxqLdLI3h6IxR/YytzAXT1vD42MIIXVJnC4nR8cylyaJ7OZRhxZeJcCPHu2eWH2ZQFkmUJYJlGUCZZlA+fE2xcsEyvezJV4mUP6aCCsTKN8TxsoEyl8VZ2UC5XvCWZlA+ashrEygfE8IKxMoywTKMoGyTKAsEyjLBMoygbJMoCwTKMsEyjKBskygLBMoywTKMoGyTKAsEyjLBMoygbJMoHzr+KNMoCwTKD9tAiXLkUS/iumT7KzT+Cmg4tm7GScqd+cL/4UkG4arGcVOT+72h4PRhP4scnoyGTg0xcTzk2U+BzLzcGMl7XBjde+HGw8WbefceR5MR45lATfhiGNKyDjkmKsg/WbotmTQQ8ElNJZEifQE7N/XgX9k+LhXSSBnuYaE6hunwkb7FPSZfOxxRGTIPPKL8PePe2KymphYK0bAR+scevtxXAin6Q2diJrmRGpv50S+wmdgEkNlcw/RmVjQz3IliCz1U2CAaRv4kdXICV5EJGb6ELHy5h6E61FQZYr/YA2o98gntQ/sOmq5XMfxeudlE7OmVzSsTJpYMhZe0hcRy1SR/jGf/zPDjH/DR/7fA2QfErQ9hAVgol98R9I5hWWaMq5mhBds4KeJUp0oaQYcIb5mwIVtN52ZmPP5qH/5US30lx930PRnYm4HLtvZktP8/WxBxzgL44DNsuvjPeVdZqh+7nWGuODWWWeI97KTtI5vABumgB1a+LnBszXslNBZz+i3gpzt3wSirjOzGenzhQXuZgBYY/QC/KUgIkkjH65UJ0ChmfamMj+F+lCxGJtFbxiJ1dIisfpGkRjhMR6HvT9h3thLD5hkeHHgLInKwm1g17oJl16CldWVYB+fXrg3mE494KdZfesZevz3Iay2B1ceYybnbh1ywVU1LSlVPTypn6qNRkNN8LvHjcOTRv24dqQqvK8VhNAM7mETbitc+w7DEUCRgJl9i2FYh7v9roNCXwNnMmzhLkORh4SYKLFGsfsMwz42ifVFRj70nYaF9FrM/4zwzYaj4jcbRuW787sNw+F2cbvhyRss3uHlOks3wMyxzMQtgMsX+xm8pBxzcfnj6s/ujy654bCjSsOZ7olX4OYEsRyOEwezQMpa3mDWKOO8X3k4Wj2jProvYAvX6KYzLmrzl7v28CTPUlxNiU9Yi8wL0ecUu0XdWrmWfniNJk2pxn6HJHazGl4xZ9PpjyfkXwFHw4ba6R6gstmscZebgP09bgIKCIswkLYN2N/zNmAmj6JSs3YC+59rJ1Cp53Ii1c+wFVhGSkUjpbRAqXF4dHrSUJRqPWmBqqEcHldP68dqfQeB0sontAHGieA9hcKI4+SmzLSadMAw70kjnLfkkW8dVkPLMIDnOS4E3hoRE+Mi7j2jlLwRUvyl1/ekrIcPHRqtqcpiLudicNWekB9FHA7lZ+eh0Ri4qHQnkdHp3mdFwxkkShPAfO0EGXBRYgTUqKlErdE1Wb0CGJXZGHSdNqGDKCsJ1TJnP6vqMuJUZpxuDuAUxgVFpsREEgUYMFu+rxszPNBZ5WDPRwluc5pzmitr4SQ+y+l5TBQhKMMCjfMcZLfIWj48ALPjYkzSv8ZE3eHvWs9sIu2S3oNHTCEVRwtgwGnwt6KsUpyC4BLvvcgEK46DYs5u+K03mpAfRZxdFKHbnGBVi0yvQisOP5lEYfRDEPwf22IqXU7pckqXI7qcECvsd+8VLsZPznhGTjB6jZVIzZz8ZA+dc9yig6ZEJvFifFQxXo8YAd9H0PIkfi6GHAXNPKxILbzB7vVR6AbplI5NtLGOuVT/5i2e1Rn4EFu+VFtBkewhB6uqmiyUa3yqI/WAkWUTj/6JxSqYYK6D6Pv/u9RXv2COAAA=

[PSD]
ActualTwoTheta=9999
FirstUsedChannel=0
FixedPSD=0
PSDOpening=4.99171
PSDType=5

[Drive]
DriveFlags=1
DriveName=2Theta
DriveNumber=2
DriveOffset=0
OffsetIndex=0
OscillationAmplitude=0
OscillationSpeed=0
StartPosition=40.0015

[Drive]
DriveFlags=1
DriveName=Theta
DriveNumber=1
DriveOffset=0
OffsetIndex=0
OscillationAmplitude=0
OscillationSpeed=0
StartPosition=20.0007

[Drive]
DriveFlags=1
DriveName=Phi
DriveNumber=3
DriveOffset=0
OffsetIndex=0
OscillationAmplitude=0
OscillationSpeed=0
StartPosition=0

[Data]
     Angle,       PSD,
   40.0015,       615,
   40.0217,       647,
   40.0418,       593,
    40.062,       627,
   40.0822,       616,
   40.1023,       640,
   40.1225,       658,
   40.1427,       614,
   40.1628,       635,
    40.183,       647,
   40.2032,       654,
   40.2233,       604,
   40.2435,       619,
   40.2637,       591,
   40.2838,       625,
    40.304,       609,
   40.3242,       654,
   40.3444,       599,
   40.3645,       606,
   40.3847,       656,
   40.4049,       656,
    40.425,       619,
   40.4452,       616,
   40.4654,       627,
   40.4855,       647,
   40.5057,       602,
   40.5259,       639,
    40.546,       609,
   40.5662,       631,
   40.5864,       617,
   40.6065,       603,
   40.6267,       629,
   40.6469,       578,
   40.6671,       600,
   40.6872,       594,
   40.7074,       614,
   40.7276,       653,
   40.7477,       619,
   40.7679,       663,
   40.7881,       607,
   40.8082,       682,
   40.8284,       636,
   40.8486,       617,
   40.8687,       656,
   40.8889,       607,
   40.9091,       633,
   40.9292,       644,
   40.9494,       685,
   40.9696,       648,
   40.9897,       654,
   41.0099,       619,
   41.0301,       625,
   41.0503,       624,
   41.0704,       619,
   41.0906,       621,
   41.1108,       609,
   41.1309,       625,
   41.1511,       607,
   41.1713,       587,
   41.1914,       662,
   41.2116,       648,
   41.2318,       606,
   41.2519,       629,
   41.2721,       641,
   41.2923,       617,
   41.3124,       655,
   41.3326,       652,
   41.3528,       596,
   41.3729,       602,
   41.3931,       659,
   41.4133,       613,
   41.4335,       645,
   41.4536,       641,
   41.4738,       626,
    41.494,       655,
   41.5141,       641,
   41.5343,       656,
   41.5545,       582,
   41.5746,       638,
   41.5948,       653,
    41.615,       621,
   41.6351,       657,
   41.6553,       672,
   41.6755,       627,
   41.6956,       607,
   41.7158,       663,
    41.736,       661,
   41.7562,       721,
   41.7763,       757,
   41.7965,       737,
   41.8167,       731,
   41.8368,       711,
    41.857,       799,
   41.8772,       753,
   41.8973,       783,
   41.9175,       691,
   41.9377,       686,
   41.9578,       760,
    41.978,       787,
   41.9982,       730,
   42.0183,       805,
   42.0385,       748,
   42.0587,       798,
   42.0788,       718,
    42.099,       731,
   42.1192,       736,
   42.1394,       757,
   42.1595,       729,
   42.1797,       797,
   42.1999,       783,
     42.22,       780,
   42.2402,       759,
   42.2604,       794,
   42.2805,       775,
   42.3007,       823,
   42.3209,       761,
    42.341,       729,
   42.3612,       762,
   42.3814,       752,
   42.4015,       770,
   42.4217,       766,
   42.4419,       784,
    42.462,       808,
   42.4822,       793,
   42.5024,       809,
   42.5226,       815,
   42.5427,       808,
   42.5629,       797,
   42.5831,       800,
   42.6032,       816,
   42.6234,       742,
   42.6436,       798,
   42.6637,       817,
   42.6839,       808,
   42.7041,       836,
   42.7242,       806,
   42.7444,       859,
   42.7646,       856,
   42.7847,       943,
   42.8049,       870,
   42.8251,       899,
   42.8453,       913,
   42.8654,       988,
   42.8856,      1004,
   42.9058,      1101,
   42.9259,      1097,
   42.9461,      1236,
   42.9663,      1231,
   42.9864,      1337,
   43.0066,      1304,
   43.0268,      1448,
   43.0469,      1602,
   43.0671,      1652,
   43.0873,      1769,
   43.1074,      1987,
   43.1276,      2221,
   43.1478,      2310,
   43.1679,      2504,
   43.1881,      2855,
   43.2083,      3588,
   43.2285,      5333,
   43.2486,      9787,
   43.2688,     22619,
    43.289,     48908,
   43.3091,     65927,
   43.3293,     44402,
   43.3495,     19781,
   43.3696,     13231,
   43.3898,     19046,
     43.41,     31068,
   43.4301,     31851,
   43.4503,     17659,
   43.4705,      7520,
   43.4906,      4159,
   43.5108,      2994,
    43.531,      2448,
   43.5511,      2086,
   43.5713,      1897,
   43.5915,      1706,
   43.6117,      1664,
   43.6318,      1543,
    43.652,      1355,
   43.6722,      1304,
   43.6923,      1141,
   43.7125,      1099,
   43.7327,      1114,
   43.7528,      1091,
    43.773,       966,
   43.7932,      1024,
   43.8133,       907,
   43.8335,       877,
   43.8537,       936,
   43.8738,       865,
    43.894,       859,
   43.9142,       855,
   43.9344,       805,
   43.9545,       824,
   43.9747,       887,
   43.9949,       855,
    44.015,       814,
   44.0352,       856,
   44.0554,       817,
   44.0755,       816,
   44.0957,       780,
   44.1159,       759,
    44.136,       829,
   44.1562,       768,
   44.1764,       854,
   44.1965,       794,
   44.2167,       792,
   44.2369,       867,
    44.257,       756,
   44.2772,       724,
   44.2974,       760,
   44.3176,       761,
   44.3377,       751,
   44.3579,       790,
   44.3781,       772,
   44.3982,       725,
   44.4184,       731,
   44.4386,       722,
   44.4587,       754,
   44.4789,       775,
   44.4991,       786,
   44.5192,       719,
   44.5394,       746,
   44.5596,       679,
   44.5797,       695,
   44.5999,       779,
   44.6201,       753,
   44.6402,       750,
   44.6604,       703,
   44.6806,       733,
   44.7008,       713,
   44.7209,       733,
   44.7411,       717,
   44.7613,       733,
   44.7814,       731,
   44.8016,       694,
   44.8218,       720,
   44.8419,       744,
   44.8621,       685,
   44.8823,       692,
   44.9024,       722,
   44.9226,       754,
   44.9428,       737,
   44.9629,       714,
   44.9831,       707,
   45.0033,       730,
   45.0235,       696,
   45.0436,       784,
   45.0638,       702,
    45.084,       716,
   45.1041,       705,
   45.1243,       728,
   45.1445,       740,
   45.1646,       720,
   45.1848,       728,
    45.205,       710,
   45.2251,       734,
   45.2453,       749,
   45.2655,       740,
   45.2856,       732,
   45.3058,       699,
    45.326,       786,
   45.3461,       719,
   45.3663,       694,
   45.3865,       707,
   45.4067,       718,
   45.4268,       677,
    45.447,       674,
   45.4672,       689,
   45.4873,       703,
   45.5075,       695,
   45.5277,       693,
   45.5478,       721,
    45.568,       716,
   45.5882,       664,
   45.6083,       683,
   45.6285,       721,
   45.6487,       676,
   45.6688,       704,
    45.689,       695,
   45.7092,       749,
   45.7294,       642,
   45.7495,       679,
   45.7697,       691,
   45.7899,       719,
     45.81,       694,
   45.8302,       676,
   45.8504,       698,
   45.8705,       693,
   45.8907,       660,
   45.9109,       673,
    45.931,       684,
   45.9512,       688,
   45.9714,       699,
   45.9915,       741,
   46.0117,       648,
   46.0319,       712,
    46.052,       702,
   46.0722,       705,
   46.0924,       693,
   46.1126,       680,
   46.1327,       670,
   46.1529,       741,
   46.1731,       627,
   46.1932,       687,
   46.2134,       679,
   46.2336,       671,
   46.2537,       709,
   46.2739,       696,
   46.2941,       711,
   46.3142,       686,
   46.3344,       631,
   46.3546,       690,
   46.3747,       661,
   46.3949,       648,
   46.4151,       676,
   46.4352,       709,
   46.4554,       703,
   46.4756,       684,
   46.4958,       645,
   46.5159,       693,
   46.5361,       711,
   46.5563,       706,
   46.5764,       665,
   46.5966,       636,
   46.6168,       688,
   46.6369,       687,
   46.6571,       660,
   46.6773,       696,
   46.6974,       705,
   46.7176,       720,
   46.7378,       715,
   46.7579,       693,
   46.7781,       690,
   46.7983,       696,
   46.8185,       663,
   46.8386,       689,
   46.8588,       675,
    46.879,       681,
   46.8991,       660,
   46.9193,       663,
   46.9395,       658,
   46.9596,       687,
   46.9798,       649,
        47,       688,
   47.0201,       682,
   47.0403,       676,
   47.0605,       689,
   47.0806,       688,
   47.1008,       639,
    47.121,       689,
   47.1411,       684,
   47.1613,       664,
   47.1815,       676,
   47.2017,       673,
   47.2218,       662,
    47.242,       723,
   47.2622,       714,
   47.2823,       701,
   47.3025,       680,
   47.3227,       673,
   47.3428,       652,
    47.363,       684,
   47.3832,       670,
   47.4033,       683,
   47.4235,       660,
   47.4437,       671,
   47.4638,       671,
    47.484,       713,
   47.5042,       662,
   47.5243,       686,
   47.5445,       668,
   47.5647,       662,
   47.5849,       672,
    47.605,       639,
   47.6252,       665,
   47.6454,       652,
   47.6655,       709,
   47.6857,       639,
   47.7059,       680,
    47.726,       660,
   47.7462,       680,
   47.7664,       611,
   47.7865,       651,
   47.8067,       614,
   47.8269,       689,
    47.847,       692,
   47.8672,       660,
   47.8874,       673,
   47.9076,       667,
   47.9277,       677,
   47.9479,       715,
   47.9681,       671,
   47.9882,       675,
   48.0084,       684,
   48.0286,       670,
   48.0487,       666,
   48.0689,       672,
   48.0891,       688,
   48.1092,       682,
   48.1294,       638,
   48.1496,       675,
   48.1697,       685,
   48.1899,       675,
   48.2101,       654,
   48.2302,       653,
   48.2504,       660,
   48.2706,       666,
   48.2908,       678,
   48.3109,       697,
   48.3311,       693,
   48.3513,       655,
   48.3714,       613,
   48.3916,       642,
   48.4118,       635,
   48.4319,       699,
   48.4521,       660,
   48.4723,       651,
   48.4924,       667,
   48.5126,       664,
   48.5328,       690,
   48.5529,       696,
   48.5731,       667,
   48.5933,       703,
   48.6134,       699,
   48.6336,       703,
   48.6538,       645,
    48.674,       695,
   48.6941,       674,
   48.7143,       697,
   48.7345,       685,
   48.7546,       704,
   48.7748,       683,
    48.795,       669,
   48.8151,       697,
   48.8353,       647,
   48.8555,       674,
   48.8756,       717,
   48.8958,       679,
    48.916,       636,
   48.9361,       688,
   48.9563,       685,
   48.9765,       725,
   48.9967,       647,
   49.0168,       670,
    49.037,       664,
   49.0572,       664,
   49.0773,       726,
   49.0975,       660,
   49.1177,       684,
   49.1378,       663,
    49.158,       661,
   49.1782,       730,
   49.1983,       681,
   49.2185,       693,
   49.2387,       675,
   49.2588,       645,
    49.279,       656,
   49.2992,       662,
   49.3193,       680,
   49.3395,       666,
   49.3597,       683,
   49.3799,       694,
      49.4,       687,
   49.4202,       701,
   49.4404,       726,
   49.4605,       662,
   49.4807,       690,
   49.5009,       721,
    49.521,       707,
   49.5412,       656,
   49.5614,       666,
   49.5815,       652,
   49.6017,       732,
   49.6219,       726,
    49.642,       695,
   49.6622,       711,
   49.6824,       744,
   49.7025,       659,
   49.7227,       707,
   49.7429,       680,
   49.7631,       738,
   49.7832,       699,
   49.8034,       716,
   49.8236,       689,
   49.8437,       692,
   49.8639,       729,
   49.8841,       739,
   49.9042,       711,
   49.9244,       760,
   49.9446,       739,
   49.9647,       778,
   49.9849,       773,
   50.0051,       784,
   50.0252,       827,
   50.0454,       808,
   50.0656,       865,
   50.0858,       876,
   50.1059,       897,
   50.1261,       919,
   50.1463,       936,
   50.1664,      1001,
   50.1866,      1045,
   50.2068,      1063,
   50.2269,      1144,
   50.2471,      1138,
   50.2673,      1230,
   50.2874,      1387,
   50.3076,      1500,
   50.3278,      1691,
   50.3479,      2296,
   50.3681,      3294,
   50.3883,      5502,
   50.4084,      9006,
   50.4286,     12967,
   50.4488,     13150,
    50.469,      9587,
   50.4891,      6167,
   50.5093,      4581,
   50.5295,      4888,
   50.5496,      6273,
   50.5698,      7384,
     50.59,      6764,
   50.6101,      4513,
   50.6303,      3025,
   50.6505,      2035,
   50.6706,      1601,
   50.6908,      1355,
    50.711,      1260,
   50.7311,      1159,
   50.7513,      1067,
   50.7715,       979,
   50.7917,       928,
   50.8118,       849,
    50.832,       837,
   50.8522,       778,
   50.8723,       825,
   50.8925,       796,
   50.9127,       780,
   50.9328,       801,
    50.953,       740,
   50.9732,       727,
   50.9933,       818,
   51.0135,       692,
   51.0337,       769,
   51.0538,       661,
    51.074,       705,
   51.0942,       673,
   51.1143,       701,
   51.1345,       694,
   51.1547,       715,
   51.1749,       683,
    51.195,       692,
   51.2152,       710,
   51.2354,       736,
   51.2555,       682,
   51.2757,       689,
   51.2959,       676,
    51.316,       668,
   51.3362,       679,
   51.3564,       696,
   51.3765,       647,
   51.3967,       661,
   51.4169,       704,
    51.437,       671,
   51.4572,       695,
   51.4774,       696,
   51.4975,       661,
   51.5177,       662,
   51.5379,       615,
   51.5581,       656,
   51.5782,       652,
   51.5984,       681,
   51.6186,       693,
   51.6387,       627,
   51.6589,       633,
   51.6791,       677,
   51.6992,       667,
   51.7194,       689,
   51.7396,       673,
   51.7597,       666,
   51.7799,       621,
   51.8001,       708,
   51.8202,       685,
   51.8404,       690,
   51.8606,       693,
   51.8808,       643,
   51.9009,       625,
   51.9211,       633,
   51.9413,       644,
   51.9614,       664,
   51.9816,       614,
   52.0018,       673,
   52.0219,       678,
   52.0421,       685,
   52.0623,       659,
   52.0824,       664,
   52.1026,       633,
   52.1228,       620,
   52.1429,       637,
   52.1631,       668,
   52.1833,       640,
   52.2034,       646,
   52.2236,       654,
   52.2438,       641,
    52.264,       648,
   52.2841,       669,
   52.3043,       662,
   52.3245,       643,
   52.3446,       623,
   52.3648,       663,
    52.385,       624,
   52.4051,       629,
   52.4253,       691,
   52.4455,       644,
   52.4656,       662,
   52.4858,       646,
    52.506,       676,
   52.5261,       651,
   52.5463,       664,
   52.5665,       632,
   52.5866,       634,
   52.6068,       670,
    52.627,       630,
   52.6472,       640,
   52.6673,       715,
   52.6875,       629,
   52.7077,       691,
   52.7278,       600,
    52.748,       621,
   52.7682,       610,
   52.7883,       647,
   52.8085,       648,
   52.8287,       615,
   52.8488,       602,
    52.869,       670,
   52.8892,       611,
   52.9093,       687,
   52.9295,       631,
   52.9497,       605,
   52.9699,       648,
     52.99,       694,
   53.0102,       677,
   53.0304,       654,
   53.0505,       628,
   53.0707,       626,
   53.0909,       693,
    53.111,       628,
   53.1312,       659,
   53.1514,       608,
   53.1715,       646,
   53.1917,       666,
   53.2119,       645,
    53.232,       666,
   53.2522,       663,
   53.2724,       643,
   53.2925,       643,
   53.3127,       682,
   53.3329,       630,
   53.3531,       677,
   53.3732,       673,
   53.3934,       637,
   53.4136,       643,
   53.4337,       625,
   53.4539,       674,
   53.4741,       622,
   53.4942,       631,
   53.5144,       662,
   53.5346,       616,
   53.5547,       649,
   53.5749,       692,
   53.5951,       635,
   53.6152,       651,
   53.6354,       654,
   53.6556,       640,
   53.6757,       607,
   53.6959,       672,
   53.7161,       629,
   53.7363,       565,
   53.7564,       662,
   53.7766,       589,
   53.7968,       595,
   53.8169,       653,
   53.8371,       576,
   53.8573,       638,
   53.8774,       637,
   53.8976,       650,
   53.9178,       615,
   53.9379,       628,
   53.9581,       625,
   53.9783,       650,
   53.9984,       665,
   54.0186,       661,
   54.0388,       637,
    54.059,       638,
   54.0791,       626,
   54.0993,       632,
   54.1195,       636,
   54.1396,       628,
   54.1598,       633,
     54.18,       607,
   54.2001,       644,
   54.2203,       633,
   54.2405,       636,
   54.2606,       657,
   54.2808,       650,
    54.301,       650,
   54.3211,       674,
   54.3413,       661,
   54.3615,       649,
   54.3816,       624,
   54.4018,       612,
    54.422,       636,
   54.4422,       664,
   54.4623,       638,
   54.4825,       616,
   54.5027,       679,
   54.5228,       645,
    54.543,       622,
   54.5632,       639,
   54.5833,       609,
   54.6035,       618,
   54.6237,       646,
   54.6438,       660,
    54.664,       595,
   54.6842,       648,
   54.7043,       651,
   54.7245,       637,
   54.7447,       638,
   54.7648,       658,
    54.785,       616,
   54.8052,       598,
   54.8254,       630,
   54.8455,       643,
   54.8657,       609,
   54.8859,       593,
    54.906,       589,
   54.9262,       651,
   54.9464,       622,
   54.9665,       669,
   54.9867,       642,
   55.0069,       616,
    55.027,       627,
   55.0472,       645,
   55.0674,       582,
   55.0875,       651,
   55.1077,       659,
   55.1279,       630,
   55.1481,       641,
   55.1682,       644,
   55.1884,       651,
   55.2086,       624,
   55.2287,       657,
   55.2489,       627,
   55.2691,       627,
   55.2892,       656,
   55.3094,       671,
   55.3296,       624,
   55.3497,       630,
   55.3699,       664,
   55.3901,       575,
   55.4102,       598,
   55.4304,       600,
   55.4506,       641,
   55.4707,       603,
   55.4909,       619,
   55.5111,       603,
   55.5313,       599,
   55.5514,       653,
   55.5716,       650,
   55.5918,       648,
   55.6119,       661,
   55.6321,       602,
   55.6523,       606,
   55.6724,       624,
   55.6926,       605,
   55.7128,       634,
   55.7329,       646,
   55.7531,       610,
   55.7733,       612,
   55.7934,       631,
   55.8136,       589,
   55.8338,       609,
    55.854,       590,
   55.8741,       629,
   55.8943,       664,
   55.9145,       606,
   55.9346,       619,
   55.9548,       636,
    55.975,       637,
   55.9951,       682,
   56.0153,       597,
   56.0355,       637,
   56.0556,       634,
   56.0758,       655,
    56.096,       630,
   56.1161,       610,
   56.1363,       620,
   56.1565,       674,
   56.1766,       668,
   56.1968,       629,
    56.217,       650,
   56.2372,       610,
   56.2573,       591,
   56.2775,       648,
   56.2977,       622,
   56.3178,       635,
    56.338,       626,
   56.3582,       652,
   56.3783,       594,
   56.3985,       561,
   56.4187,       670,
   56.4388,       611,
    56.459,       602,
   56.4792,       621,
   56.4993,       612,
   56.5195,       638,
   56.5397,       635,
   56.5598,       613,
     56.58,       632,
   56.6002,       571,
   56.6204,       617,
   56.6405,       621,
   56.6607,       646,
   56.6809,       616,
    56.701,       630,
   56.7212,       654,
   56.7414,       590,
   56.7615,       616,
   56.7817,       641,
   56.8019,       648,
    56.822,       630,
   56.8422,       604,
   56.8624,       666,
   56.8825,       635,
   56.9027,       630,
   56.9229,       591,
   56.9431,       678,
   56.9632,       611,
   56.9834,       598,
   57.0036,       682,
   57.0237,       636,
   57.0439,       645,
   57.0641,       622,
   57.0842,       603,
   57.1044,       580,
   57.1246,       597,
   57.1447,       608,
   57.1649,       595,
   57.1851,       629,
   57.2052,       636,
   57.2254,       599,
   57.2456,       622,
   57.2657,       659,
   57.2859,       584,
   57.3061,       624,
   57.3263,       620,
   57.3464,       600,
   57.3666,       706,
   57.3868,       609,
   57.4069,       639,
   57.4271,       576,
   57.4473,       628,
   57.4674,       618,
   57.4876,       651,
   57.5078,       681,
   57.5279,       625,
   57.5481,       649,
   57.5683,       627,
   57.5884,       589,
   57.6086,       613,
   57.6288,       607,
   57.6489,       659,
   57.6691,       609,
   57.6893,       598,
   57.7095,       619,
   57.7296,       602,
   57.7498,       631,
     57.77,       635,
   57.7901,       597,
   57.8103,       591,
   57.8305,       574,
   57.8506,       608,
   57.8708,       650,
    57.891,       631,
   57.9111,       617,
   57.9313,       602,
   57.9515,       621,
   57.9716,       605,
   57.9918,       580,
    58.012,       618,
   58.0322,       570,
   58.0523,       643,
   58.0725,       579,
   58.0927,       625,
   58.1128,       604,
    58.133,       649,
   58.1532,       597,
   58.1733,       660,
   58.1935,       608,
   58.2137,       631,
   58.2338,       592,
    58.254,       676,
   58.2742,       643,
   58.2943,       581,
   58.3145,       633,
   58.3347,       630,
   58.3548,       608,
    58.375,       581,
   58.3952,       641,
   58.4154,       618,
   58.4355,       581,
   58.4557,       598,
   58.4759,       637,
    58.496,       583,
   58.5162,       630,
   58.5364,       573,
   58.5565,       598,
   58.5767,       607,
   58.5969,       659,
    58.617,       642,
   58.6372,       614,
   58.6574,       585,
   58.6775,       596,
   58.6977,       649,
   58.7179,       610,
    58.738,       603,
   58.7582,       608,
   58.7784,       571,
   58.7986,       594,
   58.8187,       626,
   58.8389,       635,
   58.8591,       551,
   58.8792,       660,
   58.8994,       630,
   58.9196,       638,
   58.9397,       594,
   58.9599,       579,
   58.9801,       552,
   59.0002,       603,
   59.0204,       592,
   59.0406,       635,
   59.0607,       616,
   59.0809,       651,
   59.1011,       586,
   59.1213,       616,
   59.1414,       663,
   59.1616,       630,
   59.1818,       643,
   59.2019,       582,
   59.2221,       588,
   59.2423,       619,
   59.2624,       628,
   59.2826,       626,
   59.3028,       609,
   59.3229,       603,
   59.3431,       632,
   59.3633,       615,
   59.3834,       620,
   59.4036,       605,
   59.4238,       635,
   59.4439,       651,
   59.4641,       593,
   59.4843,       582,
   59.5045,       591,
   59.5246,       582,
   59.5448,       586,
    59.565,       592,
   59.5851,       634,
   59.6053,       588,
   59.6255,       660,
   59.6456,       600,
   59.6658,       606,
    59.686,       601,
   59.7061,       650,
   59.7263,       609,
   59.7465,       595,
   59.7666,       583,
   59.7868,       600,
    59.807,       593,
   59.8271,       608,
   59.8473,       628,
   59.8675,       627,
   59.8877,       598,
   59.9078,       621,
    59.928,       579,
   59.9482,       622,
   59.9683,       648,
   59.9885,       644,
   60.0087,       605,
   60.0288,       600,
    60.049,       646,
   60.0692,       588,
   60.0893,       613,
   60.1095,       611,
   60.1297,       595,
   60.1498,       633,
     60.17,       604,
   60.1902,       600,
   60.2104,       608,
   60.2305,       614,
   60.2507,       594,
   60.2709,       643,
    60.291,       601,
   60.3112,       582,
   60.3314,       642,
   60.3515,       641,
   60.3717,       587,
   60.3919,       605,
    60.412,       558,
   60.4322,       571,
   60.4524,       634,
   60.4725,       622,
   60.4927,       608,
   60.5129,       588,
    60.533,       609,
   60.5532,       594,
   60.5734,       638,
   60.5936,       603,
   60.6137,       591,
   60.6339,       620,
   60.6541,       611,
   60.6742,       604,
   60.6944,       636,
   60.7146,       575,
   60.7347,       631,
   60.7549,       629,
   60.7751,       578,
   60.7952,       576,
   60.8154,       632,
   60.8356,       609,
   60.8557,       591,
   60.8759,       563,
   60.8961,       585,
   60.9163,       564,
   60.9364,       626,
   60.9566,       608,
   60.9768,       619,
   60.9969,       615,
   61.0171,       664,
   61.0373,       629,
   61.0574,       660,
   61.0776,       634,
   61.0978,       586,
   61.1179,       604,
   61.1381,       604,
   61.1583,       651,
   61.1784,       575,
   61.1986,       615,
   61.2188,       592,
   61.2389,       636,
   61.2591,       627,
   61.2793,       579,
   61.2995,       650,
   61.3196,       606,
   61.3398,       612,
     61.36,       618,
   61.3801,       591,
   61.4003,       568,
   61.4205,       627,
   61.4406,       564,
   61.4608,       582,
    61.481,       605,
   61.5011,       598,
   61.5213,       620,
   61.5415,       591,
   61.5616,       615,
   61.5818,       612,
    61.602,       600,
   61.6221,       605,
   61.6423,       599,
   61.6625,       557,
   61.6827,       586,
   61.7028,       583,
    61.723,       586,
   61.7432,       599,
   61.7633,       565,
   61.7835,       569,
   61.8037,       592,
   61.8238,       566,
    61.844,       581,
   61.8642,       588,
   61.8843,       594,
   61.9045,       606,
   61.9247,       606,
   61.9448,       627,
    61.965,       618,
   61.9852,       568,
   62.0054,       572,
   62.0255,       618,
   62.0457,       646,
   62.0659,       567,
    62.086,       582,
   62.1062,       586,
   62.1264,       622,
   62.1465,       579,
   62.1667,       607,
   62.1869,       667,
    62.207,       612,
   62.2272,       645,
   62.2474,       606,
   62.2675,       580,
   62.2877,       628,
   62.3079,       597,
    62.328,       625,
   62.3482,       614,
   62.3684,       631,
   62.3886,       607,
   62.4087,       618,
   62.4289,       616,
   62.4491,       601,
   62.4692,       609,
   62.4894,       585,
   62.5096,       602,
   62.5297,       599,
   62.5499,       582,
   62.5701,       637,
   62.5902,       592,
   62.6104,       624,
   62.6306,       591,
   62.6507,       619,
   62.6709,       582,
   62.6911,       593,
   62.7112,       671,
   62.7314,       606,
   62.7516,       649,
   62.7718,       642,
   62.7919,       565,
   62.8121,       591,
   62.8323,       619,
   62.8524,       597,
   62.8726,       635,
   62.8928,       584,
   62.9129,       587,
   62.9331,       575,
   62.9533,       648,
   62.9734,       640,
   62.9936,       615,
   63.0138,       597,
   63.0339,       615,
   63.0541,       608,
   63.0743,       626,
   63.0945,       589,
   63.1146,       628,
   63.1348,       599,
    63.155,       565,
   63.1751,       559,
   63.1953,       599,
   63.2155,       640,
   63.2356,       617,
   63.2558,       623,
    63.276,       571,
   63.2961,       632,
   63.3163,       615,
   63.3365,       643,
   63.3566,       596,
   63.3768,       636,
    63.397,       612,
   63.4171,       593,
   63.4373,       607,
   63.4575,       604,
   63.4777,       579,
   63.4978,       611,
    63.518,       613,
   63.5382,       584,
   63.5583,       582,
   63.5785,       587,
   63.5987,       597,
   63.6188,       553,
    63.639,       640,
   63.6592,       599,
   63.6793,       597,
   63.6995,       607,
   63.7197,       591,
   63.7398,       557,
     63.76,       570,
   63.7802,       633,
   63.8003,       662,
   63.8205,       626,
   63.8407,       623,
   63.8609,       633,
    63.881,       618,
   63.9012,       634,
   63.9214,       562,
   63.9415,       578,
   63.9617,       594,
   63.9819,       646,
    64.002,       589,
   64.0222,       576,
   64.0424,       574,
   64.0625,       614,
   64.0827,       638,
   64.1029,       631,
    64.123,       540,
   64.1432,       644,
   64.1634,       569,
   64.1836,       612,
   64.2037,       636,
   64.2239,       607,
   64.2441,       597,
   64.2642,       681,
   64.2844,       574,
   64.3046,       593,
   64.3247,       635,
   64.3449,       572,
   64.3651,       607,
   64.3852,       624,
   64.4054,       623,
   64.4256,       610,
   64.4457,       640,
   64.4659,       636,
   64.4861,       657,
   64.5062,       627,
   64.5264,       642,
   64.5466,       579,
   64.5668,       628,
   64.5869,       597,
   64.6071,       619,
   64.6273,       615,
   64.6474,       593,
   64.6676,       593,
   64.6878,       611,
   64.7079,       551,
   64.7281,       625,
   64.7483,       586,
   64.7684,       621,
   64.7886,       585,
   64.8088,       612,
   64.8289,       630,
   64.8491,       587,
   64.8693,       597,
   64.8894,       643,
   64.9096,       620,
   64.9298,       621,
     64.95,       617,
   64.9701,       600,
   64.9903,       601,
   65.0105,       621,
   65.0306,       614,
   65.0508,       632,
    65.071,       588,
   65.0911,       637,
   65.1113,       608,
   65.1315,       599,
   65.1516,       603,
   65.1718,       622,
    65.192,       589,
   65.2121,       595,
   65.2323,       588,
   65.2525,       566,
   65.2727,       594,
   65.2928,       610,
    65.313,       593,
   65.3332,       590,
   65.3533,       615,
   65.3735,       588,
   65.3937,       586,
   65.4138,       661,
    65.434,       595,
   65.4542,       649,
   65.4743,       574,
   65.4945,       566,
   65.5147,       567,
   65.5348,       628,
    65.555,       590,
   65.5752,       602,
   65.5953,       582,
   65.6155,       591,
   65.6357,       592,
   65.6559,       627,
    65.676,       601,
   65.6962,       642,
   65.7164,       593,
   65.7365,       608,
   65.7567,       606,
   65.7769,       596,
    65.797,       564,
   65.8172,       642,
   65.8374,       641,
   65.8575,       581,
   65.8777,       600,
   65.8979,       606,
    65.918,       642,
   65.9382,       625,
   65.9584,       639,
   65.9786,       655,
   65.9987,       628,
   66.0189,       615,
   66.0391,       645,
   66.0592,       620,
   66.0794,       581,
   66.0996,       578,
   66.1197,       626,
   66.1399,       602,
   66.1601,       639,
   66.1802,       611,
   66.2004,       617,
   66.2206,       579,
   66.2407,       630,
   66.2609,       590,
   66.2811,       603,
   66.3012,       589,
   66.3214,       578,
   66.3416,       633,
   66.3618,       600,
   66.3819,       663,
   66.4021,       607,
   66.4223,       605,
   66.4424,       595,
   66.4626,       580,
   66.4828,       565,
   66.5029,       593,
   66.5231,       600,
   66.5433,       593,
   66.5634,       630,
   66.5836,       613,
   66.6038,       654,
   66.6239,       586,
   66.6441,       638,
   66.6643,       588,
   66.6844,       633,
   66.7046,       551,
   66.7248,       641,
    66.745,       577,
   66.7651,       640,
   66.7853,       575,
   66.8055,       582,
   66.8256,       593,
   66.8458,       590,
    66.866,       578,
   66.8861,       611,
   66.9063,       598,
   66.9265,       574,
   66.9466,       600,
   66.9668,       570,
    66.987,       630,
   67.0071,       598,
   67.0273,       610,
   67.0475,       623,
   67.0677,       601,
   67.0878,       634,
    67.108,       617,
   67.1282,       621,
   67.1483,       600,
   67.1685,       562,
   67.1887,       628,
   67.2088,       634,
    67.229,       631,
   67.2492,       619,
   67.2693,       610,
   67.2895,       614,
   67.3097,       591,
   67.3298,       575,
     67.35,       572,
   67.3702,       599,
   67.3903,       601,
   67.4105,       601,
   67.4307,       621,
   67.4509,       600,
    67.471,       570,
   67.4912,       613,
   67.5114,       565,
   67.5315,       572,
   67.5517,       603,
   67.5719,       628,
    67.592,       600,
   67.6122,       609,
   67.6324,       591,
   67.6525,       624,
   67.6727,       606,
   67.6929,       594,
    67.713,       605,
   67.7332,       607,
   67.7534,       617,
   67.7735,       597,
   67.7937,       575,
   67.8139,       599,
   67.8341,       570,
   67.8542,       567,
   67.8744,       616,
   67.8946,       584,
   67.9147,       601,
   67.9349,       580,
   67.9551,       593,
   67.9752,       621,
   67.9954,       607,
   68.0156,       596,
   68.0357,       618,
   68.0559,       647,
   68.0761,       618,
   68.0962,       575,
   68.1164,       614,
   68.1366,       586,
   68.1568,       617,
   68.1769,       635,
   68.1971,       593,
   68.2173,       533,
   68.2374,       614,
   68.2576,       614,
   68.2778,       588,
   68.2979,       612,
   68.3181,       615,
   68.3383,       613,
   68.3584,       592,
   68.3786,       579,
   68.3988,       589,
   68.4189,       620,
   68.4391,       579,
   68.4593,       615,
   68.4794,       636,
   68.4996,       597,
   68.5198,       638,
     68.54,       573,
   68.5601,       593,
   68.5803,       635,
   68.6005,       631,
   68.6206,       635,
   68.6408,       624,
    68.661,       585,
   68.6811,       611,
   68.7013,       589,
   68.7215,       605,
   68.7416,       567,
   68.7618,       599,
    68.782,       620,
   68.8021,       560,
   68.8223,       588,
   68.8425,       613,
   68.8626,       629,
   68.8828,       620,
    68.903,       593,
   68.9232,       606,
   68.9433,       584,
   68.9635,       605,
   68.9837,       616,
   69.0038,       594,
    69.024,       644,
   69.0442,       595,
   69.0643,       576,
   69.0845,       581,
   69.1047,       600,
   69.1248,       593,
    69.145,       620,
   69.1652,       602,
   69.1853,       599,
   69.2055,       623,
   69.2257,       603,
   69.2459,       568,
    69.266,       625,
   69.2862,       608,
   69.3064,       586,
   69.3265,       588,
   69.3467,       605,
   69.3669,       586,
    69.387,       608,
   69.4072,       586,
   69.4274,       605,
   69.4475,       653,
   69.4677,       619,
   69.4879,       595,
    69.508,       596,
   69.5282,       592,
   69.5484,       578,
   69.5685,       622,
   69.5887,       574,
   69.6089,       573,
   69.6291,       582,
   69.6492,       569,
   69.6694,       592,
   69.6896,       602,
   69.7097,       613,
   69.7299,       609,
   69.7501,       615,
   69.7702,       612,
   69.7904,       599,
   69.8106,       585,
   69.8307,       593,
   69.8509,       618,
   69.8711,       604,
   69.8912,       581,
   69.9114,       593,
   69.9316,       602,
   69.9517,       591,
   69.9719,       591,
   69.9921,       565,
   70.0123,       606,
   70.0324,       564,
   70.0526,       649,
   70.0728,       630,
   70.0929,       593,
   70.1131,       582,
   70.1333,       634,
   70.1534,       602,
   70.1736,       583,
   70.1938,       658,
   70.2139,       589,
   70.2341,       629,
   70.2543,       572,
   70.2744,       608,
   70.2946,       617,
   70.3148,       630,
    70.335,       578,
   70.3551,       604,
   70.3753,       603,
   70.3955,       603,
   70.4156,       618,
   70.4358,       610,
    70.456,       623,
   70.4761,       569,
   70.4963,       610,
   70.5165,       593,
   70.5366,       607,
   70.5568,       614,
    70.577,       595,
   70.5971,       550,
   70.6173,       603,
   70.6375,       622,
   70.6576,       608,
   70.6778,       610,
    70.698,       600,
   70.7182,       624,
   70.7383,       610,
   70.7585,       641,
   70.7787,       634,
   70.7988,       638,
    70.819,       570,
   70.8392,       587,
   70.8593,       567,
   70.8795,       607,
   70.8997,       610,
   70.9198,       569,
     70.94,       629,
   70.9602,       587,
   70.9803,       595,
   71.0005,       615,
   71.0207,       586,
   71.0409,       627,
    71.061,       630,
   71.0812,       597,
   71.1014,       627,
   71.1215,       587,
   71.1417,       598,
   71.1619,       620,
    71.182,       586,
   71.2022,       582,
   71.2224,       611,
   71.2425,       582,
   71.2627,       617,
   71.2829,       600,
    71.303,       592,
   71.3232,       628,
   71.3434,       628,
   71.3635,       599,
   71.3837,       634,
   71.4039,       594,
   71.4241,       634,
   71.4442,       615,
   71.4644,       639,
   71.4846,       629,
   71.5047,       659,
   71.5249,       609,
   71.5451,       671,
   71.5652,       603,
   71.5854,       635,
   71.6056,       609,
   71.6257,       650,
   71.6459,       664,
   71.6661,       614,
   71.6862,       573,
   71.7064,       656,
   71.7266,       655,
   71.7467,       644,
   71.7669,       619,
   71.7871,       623,
   71.8073,       604,
   71.8274,       656,
   71.8476,       620,
   71.8678,       610,
   71.8879,       611,
   71.9081,       635,
   71.9283,       639,
   71.9484,       621,
   71.9686,       581,
   71.9888,       625,
   72.0089,       623,
   72.0291,       622,
   72.0493,       624,
   72.0694,       604,
   72.0896,       643,
   72.1098,       664,
     72.13,       601,
   72.1501,       635,
   72.1703,       600,
   72.1905,       650,
   72.2106,       616,
   72.2308,       604,
    72.251,       599,
   72.2711,       619,
   72.2913,       615,
   72.3115,       626,
   72.3316,       623,
   72.3518,       582,
    72.372,       609,
   72.3921,       605,
   72.4123,       647,
   72.4325,       624,
   72.4526,       620,
   72.4728,       633,
    72.493,       599,
   72.5132,       594,
   72.5333,       649,
   72.5535,       640,
   72.5737,       598,
   72.5938,       635,
    72.614,       664,
   72.6342,       598,
   72.6543,       623,
   72.6745,       595,
   72.6947,       545,
   72.7148,       609,
    72.735,       630,
   72.7552,       610,
   72.7753,       680,
   72.7955,       609,
   72.8157,       662,
   72.8358,       651,
    72.856,       648,
   72.8762,       627,
   72.8964,       628,
   72.9165,       635,
   72.9367,       588,
   72.9569,       669,
    72.977,       624,
   72.9972,       656,
   73.0174,       620,
   73.0375,       625,
   73.0577,       629,
   73.0779,       660,
    73.098,       614,
   73.1182,       704,
   73.1384,       632,
   73.1585,       648,
   73.1787,       622,
   73.1989,       640,
   73.2191,       634,
   73.2392,       668,
   73.2594,       671,
   73.2796,       635,
   73.2997,       629,
   73.3199,       656,
   73.3401,       666,
   73.3602,       622,
   73.3804,       676,
   73.4006,       691,
   73.4207,       597,
   73.4409,       593,
   73.4611,       608,
   73.4812,       633,
   73.5014,       638,
   73.5216,       676,
   73.5417,       655,
   73.5619,       628,
   73.5821,       697,
   73.6023,       712,
   73.6224,       719,
   73.6426,       721,
   73.6628,       705,
   73.6829,       761,
   73.7031,       782,
   73.7233,       807,
   73.7434,       816,
   73.7636,       826,
   73.7838,       835,
   73.8039,       875,
   73.8241,       831,
   73.8443,       924,
   73.8644,       868,
   73.8846,       952,
   73.9048,       969,
   73.9249,      1063,
   73.9451,      1105,
   73.9653,      1165,
   73.9855,      1373,
   74.0056,      1660,
   74.0258,      2185,
    74.046,      3147,
   74.0661,      5047,
   74.0863,      8442,
   74.1065,     12069,
   74.1266,     12639,
   74.1468,      9214,
    74.167,      5728,
   74.1871,      3640,
   74.2073,      2546,
   74.2275,      2188,
   74.2476,      2268,
   74.2678,      2669,
    74.288,      3665,
   74.3082,      5439,
   74.3283,      6657,
   74.3485,      6275,
   74.3687,      4557,
   74.3888,      3035,
    74.409,      1995,
   74.4292,      1550,
   74.4493,      1263,
   74.4695,      1123,
   74.4897,       961,
   74.5098,       919,
     74.53,       855,
   74.5502,       841,
   74.5703,       823,
   74.5905,       810,
   74.6107,       718,
   74.6308,       729,
    74.651,       743,
   74.6712,       695,
   74.6914,       719,
   74.7115,       697,
   74.7317,       705,
   74.7519,       684,
    74.772,       690,
   74.7922,       656,
   74.8124,       746,
   74.8325,       703,
   74.8527,       667,
   74.8729,       625,
    74.893,       689,
   74.9132,       667,
   74.9334,       646,
   74.9535,       656,
   74.9737,       681,
   74.9939,       651,
    75.014,       653,
   75.0342,       606,
   75.0544,       607,
   75.0746,       678,
   75.0947,       656,
   75.1149,       662,
   75.1351,       619,
   75.1552,       629,
   75.1754,       676,
   75.1956,       611,
   75.2157,       663,
   75.2359,       620,
   75.2561,       652,
   75.2762,       642,
   75.2964,       600,
   75.3166,       627,
   75.3367,       689,
   75.3569,       621,
   75.3771,       654,
   75.3973,       636,
   75.4174,       642,
   75.4376,       625,
   75.4578,       653,
   75.4779,       669,
   75.4981,       582,
   75.5183,       659,
   75.5384,       613,
   75.5586,       657,
   75.5788,       679,
   75.5989,       618,
   75.6191,       607,
   75.6393,       646,
   75.6594,       604,
   75.6796,       620,
   75.6998,       642,
   75.7199,       630,
   75.7401,       620,
   75.7603,       599,
   75.7805,       637,
   75.8006,       673,
   75.8208,       593,
    75.841,       664,
   75.8611,       658,
   75.8813,       610,
   75.9015,       624,
   75.9216,       667,
   75.9418,       668,
    75.962,       581,
   75.9821,       619,
   76.0023,       599,
   76.0225,       603,
   76.0426,       624,
   76.0628,       644,
    76.083,       641,
   76.1032,       620,
   76.1233,       596,
   76.1435,       645,
   76.1637,       627,
   76.1838,       637,
    76.204,       579,
   76.2242,       604,
   76.2443,       597,
   76.2645,       607,
   76.2847,       635,
   76.3048,       639,
    76.325,       632,
   76.3452,       630,
   76.3653,       612,
   76.3855,       605,
   76.4057,       586,
   76.4258,       620,
    76.446,       624,
   76.4662,       577,
   76.4864,       596,
   76.5065,       611,
   76.5267,       622,
   76.5469,       640,
    76.567,       586,
   76.5872,       582,
   76.6074,       626,
   76.6275,       613,
   76.6477,       624,
   76.6679,       575,
    76.688,       625,
   76.7082,       625,
   76.7284,       625,
   76.7485,       626,
   76.7687,       625,
   76.7889,       617,
    76.809,       611,
   76.8292,       581,
   76.8494,       612,
   76.8696,       595,
   76.8897,       629,
   76.9099,       606,
   76.9301,       631,
   76.9502,       583,
   76.9704,       608,
   76.9906,       603,
   77.0107,       630,
   77.0309,       586,
   77.0511,       640,
   77.0712,       618,
   77.0914,       613,
   77.1116,       614,
   77.1317,       602,
   77.1519,       588,
   77.1721,       655,
   77.1923,       616,
   77.2124,       609,
   77.2326,       647,
   77.2528,       605,
   77.2729,       611,
   77.2931,       640,
   77.3133,       635,
   77.3334,       570,
   77.3536,       607,
   77.3738,       584,
   77.3939,       630,
   77.4141,       566,
   77.4343,       644,
   77.4544,       651,
   77.4746,       617,
   77.4948,       601,
   77.5149,       608,
   77.5351,       631,
   77.5553,       618,
   77.5755,       614,
   77.5956,       633,
   77.6158,       661,
    77.636,       584,
   77.6561,       622,
   77.6763,       588,
   77.6965,       629,
   77.7166,       598,
   77.7368,       613,
    77.757,       580,
   77.7771,       641,
   77.7973,       634,
   77.8175,       598,
   77.8376,       584,
   77.8578,       608,
    77.878,       617,
   77.8981,       539,
   77.9183,       587,
   77.9385,       607,
   77.9587,       610,
   77.9788,       622,
    77.999,       584,
