;RAW4.00
[RawHeader]
Date=11/26/2025
EstimatedTotalTime=426.6
FurtherDQLReading=0
HardwareIndicator=65519
MeasuredTotalTime=4.3282
MeasurementFlag=1
NumberOfMeasuredRanges=1
NumberOfRanges=1
Time=12:59:36

[VarInfo]
Type=USER
Flags=0
Value=Lab Manager

[VarInfo]
Type=SAMPLEID
Flags=0
Value=Commander Sample ID

[VarInfo]
Type=COMMENT
Flags=0
Value=

[VarInfo]
Type=UTF
Flags=0
Value=

[VarInfo]
Type=CREATOR
Flags=0
Value=V5Converter

[VarInfo]
Type=CREATOR_VERSION
Flags=0
Value=4.4.16.0

[HardwareConfiguration]
AbsorptionFactor=9999
ActivateAbsorber=0
Alpha1=1.5406
Alpha2=1.54439
AlphaAverage=1.54184
AlphaRatio=0.5
Analyzer=0
Anode=Cu
AntiScatteringSlit=9999
BeamOpticsFlags=0
Beta=1.39222
BetaRelativeIntensity=0
DeactivateAbsorber=0
DetectorSlit=9999
DivergenceSlit=9999
GoniometerControl=0
GoniometerDiameter=282
GoniometerModel=256
GoniometerStage=7
Monochromator=0
NearSampleSlit=9999
PrimarySollerSlit=9999
SampleChanger=0
SecondSollerSlit=9999
SynchronousAxis=0
ThinFilmAttachment=9999
WaveUnit=A

[RangeHeader]
ActuallyUsedLambda=1.54184
AdditionalDetectorMask=257
DataRecordLength=4
DelayTime=0
DisplayPlaneNumber=0
EstimatedScanTime=427
ExtraParametersMask=0
GeneratorCurrent=10
GeneratorVoltage=30
Increment=0.0201685
Increment3=0
NumberOfCompletedData=1885
NumberOfCounts=1
NumberOfDetectors=0
NumberOfDrives=3
NumberOfEncoderDrives=0
NumberOfMeasuredData=1885
NumberOfVaryingParameters=0
RangeStartTime=0
RotationSpeed=0
ScanMode=1
ScanType=Locked Coupled
SimulatedMeasConditions=0
SlitChangerIn=0
SmootingWidth=0
Start=40.0015
Steps=1885
SynchronousRotation=0
Time=33

[VarInfo]
Type=PSD_DISCRIM
Flags=0
Value=0.11;0.5

[VarInfo]
Type=OPTICS_V5
Flags=0
Value=H4sIAAAAAAAEAO1d63KjOhJ+Fda/zqmtBIPtXKaITzm2J+OaOHbFTnKmtrZcBORYZzC4AOey//d99hl2X2x1QViIS8C3JBN+TCaodWm6+2vUUkfS/nieW9IjcD3o2GcV5bBakYBtOCa0H84qS396oBxV/mhqF44NnTnwgdt25gvHBrbf0X1dQq1t78uzB88qM99ffJHlp6enw6faoeM+yGq1qsh/9i9HxgzM9QNoe75uG6AStjJfb1WRbqEH7y1wpc/BWWXFR0joAM9w4cInL/Bj4UHLsSW+3oXrLBc9NBZ6t3Pgojcb3P8FDH+o+7OzitwBj9AAMt+CrxUfl1Lblu55QRehTORzoM8XqLDt2L4ObeBy/coBc6yHluEvdYtxoR6o1ePT02O5h8TkLue4tzhrTW2EZGjqqBswQr3oFvyXjl+9OdUtD2hyGln7c259hcAyrwHqHhq4EDFpA/KbJ8lNjfKD1ToCFipvdm00JDA1OUbR6Btwou9Ab2HpL824AjQ5tXK8m+bF4OrHhPzodEft64TGrBVWDOsoPhpP1bBWhrxWvISy1r0hIUP+4r8skMLHrm78xG8sGODQhXPdfSHkZBMMakgD9GxISBvSeHkPOIFIQeOidilHx44baRI9r5mSRmyEDSxUYBJZ3blu/xy4JnCvAfYzAL0wsdX3b8s5NVnMwIfj6+8T9KPV/l7IxHm5Jhp5z0OvBh9BE+kGCS98DAk920dCZMIVSikeHA9SJulgmhwp1bAq2ZMXfZT4B2LSAxc+QFu3ogSlwl6OWi7Ssb/0moPwnSLFGmsYPPedJdIj0qJQrgWE0MJ5JCOdEXICmjFtjmnJUA7J0tRxpRHQLUBtYA3AytxYcejGiMm4JZa46kmmLG0LrhEWBa3xcus++8A2MZDfDYZpCWdMkQKtj5nwHfcltGVFk+OFGseMJxH2qHoYWND7cnJosmJN5ku1uCnh1+H65qyTKx3Y545jAR1NEG5s6BPpdiDSG56bXcI59IlYwiKvWdVk7knrgKm+tPxb3VoCboigVyQ96CPXTshnFewlKri/oQta5l9LD8GnYEuZYx67mbHTJoqe6ZblPK0cjVCOarZnwPgJzFUVVqC1ESPOHKsWvx33pNH5Zl7erhEyxkg2xVq1lr7TdoHug6HrLIDrvzAWEyiR9/eIRfdMhLKr5fweuE21rslCEdaQRS08UPF//xMyUSUc9B0TNG8Quqbos4xMnTwz90Y+PzEHluy7tuWt5HgP/ND5vNXOHBXjLvaN2aNbYuh5A79Evm3IJvErCL6JJ23LP418rD3OPSHRTOHDEjnla/gw85sIdabECnU0BoKwUKWYS+vrz5fAfvBnTbXRwKJhj2nOjrJISkNktZevObqMVm/q5DL4SnFwGS02cm5pFninPwKqkpa1mOmKYIUieVuWOJh2nCVqyWzxf//ehzWm2Nxw9uJBQ7dIeQJnTA/KYaNePXrNFtfo7ca2MPfItOjcf/WMZelYS+paugfVBtErK9H60Ibz5bx5oBwenx4fndaUWv3kSK0pjePu32vVE4S4oAZGIvklvWZQ4W0Rs4b0UpC0Rk/7QJiajTD10yOsXjvdJsRYdyXGNhLfFkDGuto1yh6Bqz+IoV6M/ulxppzUt4kz1l2Js43EtwWcsa52jLNz4OupIMPET46w2qmqqttD2Kq7EmEbiW9jhK262jHCrvGaRirECHVXGHuvCFutth02NsJWrKMSVWsKbh08xTrZCZK+OsbSG7gQ2D5ZHRSgJJK3tspG1g4H057tH9XfH6CibEVXr/OjKbkXhfRCBYDfqOeDOWLs0nmABl3VvJn0rm5bl73OpP2tN9TkFYkJfAye/WbPftQtiMQzg4uVjCJaIvW07+CFjI1lEf6uyTEWsnm67F2lsnIJbSARW0kbWtlk6OEgY+yhA20/e3B1k8GZLoaD0auqCHeKD6S58wgk35HmwJjpNrYKCTmTxd/SeKxl8/ienF2WXefzdFk9bOTm6N5Lz546UqiqhAVciZbr3FOQY3BWIVUkVBrdJr+ZtC6H31rRcrGRhEeyyEjkXXKxo0bYURPZUVPYUbPYUQuzEywL8PxEyoQBQloib5PW7UUWe0HrokySmCrg8D78PeybkkWGzrvjVjIvuH4+FiIbUQEDqBXeyxN46LJSkY3uZbffvRqnSMV2TCAFbaXVSDlkQmfBvNq4EkHsASVZZdetcW+QpTTSOp+8YlOLgL9pYnk4ToQicvl10J4MrpMZJONJkeZyfMe6Ed+xvgA2skTfcYU8TFacvPmcsQFLZ8dr7r82tXQiP3O7dSw/voYXlO4q5vl5u6WEjcypLxqFfRNqVSHyCL4FKaFHctihVBMCjFp1f7FErbF+MBEXRsEvZLo55TW19tJ1sT+LmlpQuitTm7f2YWpolHD6sQ1TaySFsh/E0uKy2LulDZ0nkgHOmxQp25WV3aUEnW+xcHMnRJr5lluqhymm+EkWW+4491hde7Ul3ssWbV9+7YtfJA0UTQyNGXBfyVbbPA8ud74bklUw60j9YgWfilQ/I4dzraYmBmuZ2QhiKJW9qxqLdLI3h6IxR/YytzAXT1vD42MIIXVJnC4nR8cylyaJ7OZRhxZeJcCPHu2eWH2ZQFkmUJYJlGUCZZlA+fE2xcsEyvezJV4mUP6aCCsTKN8TxsoEyl8VZ2UC5XvCWZlA+ashrEygfE8IKxMoywTKMoGyTKAsEyjLBMoygbJMoCwTKMsEyjKBskygLBMoywTKMoGyTKAsEyjLBMoygbJMoHzr+KNMoCwTKD9tAiXLkUS/iumT7KzT+Cmg4tm7GScqd+cL/4UkG4arGcVOT+72h4PRhP4scnoyGTg0xcTzk2U+BzLzcGMl7XBjde+HGw8WbefceR5MR45lATfhiGNKyDjkmKsg/WbotmTQQ8ElNJZEifQE7N/XgX9k+LhXSSBnuYaE6hunwkb7FPSZfOxxRGTIPPKL8PePe2KymphYK0bAR+scevtxXAin6Q2diJrmRGpv50S+wmdgEkNlcw/RmVjQz3IliCz1U2CAaRv4kdXICV5EJGb6ELHy5h6E61FQZYr/YA2o98gntQ/sOmq5XMfxeudlE7OmVzSsTJpYMhZe0hcRy1SR/jGf/zPDjH/DR/7fA2QfErQ9hAVgol98R9I5hWWaMq5mhBds4KeJUp0oaQYcIb5mwIVtN52ZmPP5qH/5US30lx930PRnYm4HLtvZktP8/WxBxzgL44DNsuvjPeVdZqh+7nWGuODWWWeI97KTtI5vABumgB1a+LnBszXslNBZz+i3gpzt3wSirjOzGenzhQXuZgBYY/QC/KUgIkkjH65UJ0ChmfamMj+F+lCxGJtFbxiJ1dIisfpGkRjhMR6HvT9h3thLD5hkeHHgLInKwm1g17oJl16CldWVYB+fXrg3mE494KdZfesZevz3Iay2B1ceYybnbh1ywVU1LSlVPTypn6qNRkNN8LvHjcOTRv24dqQqvK8VhNAM7mETbitc+w7DEUCRgJl9i2FYh7v9roNCXwNnMmzhLkORh4SYKLFGsfsMwz42ifVFRj70nYaF9FrM/4zwzYaj4jcbRuW787sNw+F2cbvhyRss3uHlOks3wMyxzMQtgMsX+xm8pBxzcfnj6s/ujy654bCjSsOZ7olX4OYEsRyOEwezQMpa3mDWKOO8X3k4Wj2jProvYAvX6KYzLmrzl7v28CTPUlxNiU9Yi8wL0ecUu0XdWrmWfniNJk2pxn6HJHazGl4xZ9PpjyfkXwFHw4ba6R6gstmscZebgP09bgIKCIswkLYN2N/zNmAmj6JSs3YC+59rJ1Cp53Ii1c+wFVhGSkUjpbRAqXF4dHrSUJRqPWmBqqEcHldP68dqfQeB0sontAHGieA9hcKI4+SmzLSadMAw70kjnLfkkW8dVkPLMIDnOS4E3hoRE+Mi7j2jlLwRUvyl1/ekrIcPHRqtqcpiLudicNWekB9FHA7lZ+eh0Ri4qHQnkdHp3mdFwxkkShPAfO0EGXBRYgTUqKlErdE1Wb0CGJXZGHSdNqGDKCsJ1TJnP6vqMuJUZpxuDuAUxgVFpsREEgUYMFu+rxszPNBZ5WDPRwluc5pzmitr4SQ+y+l5TBQhKMMCjfMcZLfIWj48ALPjYkzSv8ZE3eHvWs9sIu2S3oNHTCEVRwtgwGnwt6KsUpyC4BLvvcgEK46DYs5u+K03mpAfRZxdFKHbnGBVi0yvQisOP5lEYfRDEPwf22IqXU7pckqXI7qcECvsd+8VLsZPznhGTjB6jZVIzZz8ZA+dc9yig6ZEJvFifFQxXo8YAd9H0PIkfi6GHAXNPKxILbzB7vVR6AbplI5NtLGOuVT/5i2e1Rn4EFu+VFtBkewhB6uqmiyUa3yqI/WAkWUTj/6JxSqYYK6D6Pv/u9RXv2COAAA=

[PSD]
ActualTwoTheta=9999
FirstUsedChannel=0
FixedPSD=0
PSDOpening=4.99171
PSDType=5

[Drive]
DriveFlags=1
DriveName=2Theta
DriveNumber=2
DriveOffset=0
OffsetIndex=0
OscillationAmplitude=0
OscillationSpeed=0
StartPosition=40.0015

[Drive]
DriveFlags=1
DriveName=Theta
DriveNumber=1
DriveOffset=0
OffsetIndex=0
OscillationAmplitude=0
OscillationSpeed=0
StartPosition=20.0007

[Drive]
DriveFlags=1
DriveName=Phi
DriveNumber=3
DriveOffset=0
OffsetIndex=0
OscillationAmplitude=0
OscillationSpeed=0
StartPosition=0

[Data]
     Angle,       PSD,
   40.0015,       634,
   40.0217,       616,
   40.0418,       602,
    40.062,       640,
   40.0822,       649,
   40.1023,       641,
   40.1225,       667,
   40.1427,       635,
   40.1628,       657,
    40.183,       658,
   40.2032,       624,
   40.2233,       629,
   40.2435,       652,
   40.2637,       671,
   40.2838,       638,
    40.304,       617,
   40.3242,       619,
   40.3444,       618,
   40.3645,       621,
   40.3847,       620,
   40.4049,       634,
    40.425,       634,
   40.4452,       653,
   40.4654,       660,
   40.4855,       617,
   40.5057,       616,
   40.5259,       629,
    40.546,       661,
   40.5662,       644,
   40.5864,       590,
   40.6065,       653,
   40.6267,       623,
   40.6469,       631,
   40.6671,       653,
   40.6872,       630,
   40.7074,       619,
   40.7276,       630,
   40.7477,       651,
   40.7679,       645,
   40.7881,       693,
   40.8082,       647,
   40.8284,       617,
   40.8486,       610,
   40.8687,       701,
   40.8889,       660,
   40.9091,       638,
   40.9292,       669,
   40.9494,       661,
   40.9696,       648,
   40.9897,       613,
   41.0099,       621,
   41.0301,       630,
   41.0503,       654,
   41.0704,       637,
   41.0906,       615,
   41.1108,       626,
   41.1309,       680,
   41.1511,       642,
   41.1713,       647,
   41.1914,       644,
   41.2116,       631,
   41.2318,       610,
   41.2519,       691,
   41.2721,       613,
   41.2923,       627,
   41.3124,       597,
   41.3326,       674,
   41.3528,       604,
   41.3729,       683,
   41.3931,       637,
   41.4133,       600,
   41.4335,       669,
   41.4536,       659,
   41.4738,       663,
    41.494,       650,
   41.5141,       667,
   41.5343,       644,
   41.5545,       644,
   41.5746,       669,
   41.5948,       651,
    41.615,       640,
   41.6351,       706,
   41.6553,       674,
   41.6755,       672,
   41.6956,       657,
   41.7158,       636,
    41.736,       714,
   41.7562,       668,
   41.7763,       649,
   41.7965,       619,
   41.8167,       707,
   41.8368,       717,
    41.857,       711,
   41.8772,       749,
   41.8973,       701,
   41.9175,       802,
   41.9377,       735,
   41.9578,       748,
    41.978,       769,
   41.9982,       783,
   42.0183,       792,
   42.0385,       741,
   42.0587,       785,
   42.0788,       773,
    42.099,       744,
   42.1192,       812,
   42.1394,       714,
   42.1595,       726,
   42.1797,       747,
   42.1999,       755,
     42.22,       769,
   42.2402,       726,
   42.2604,       811,
   42.2805,       744,
   42.3007,       776,
   42.3209,       759,
    42.341,       773,
   42.3612,       762,
   42.3814,       789,
   42.4015,       819,
   42.4217,       802,
   42.4419,       781,
    42.462,       791,
   42.4822,       804,
   42.5024,       796,
   42.5226,       772,
   42.5427,       817,
   42.5629,       827,
   42.5831,       798,
   42.6032,       823,
   42.6234,       858,
   42.6436,       815,
   42.6637,       760,
   42.6839,       744,
   42.7041,       780,
   42.7242,       834,
   42.7444,       761,
   42.7646,       840,
   42.7847,       795,
   42.8049,       915,
   42.8251,       854,
   42.8453,       954,
   42.8654,       877,
   42.8856,       936,
   42.9058,      1009,
   42.9259,       996,
   42.9461,      1026,
   42.9663,      1113,
   42.9864,      1143,
   43.0066,      1253,
   43.0268,      1241,
   43.0469,      1301,
   43.0671,      1361,
   43.0873,      1418,
   43.1074,      1576,
   43.1276,      1698,
   43.1478,      1893,
   43.1679,      2145,
   43.1881,      2193,
   43.2083,      2284,
   43.2285,      2547,
   43.2486,      3001,
   43.2688,      3947,
    43.289,      5818,
   43.3091,     11253,
   43.3293,     25586,
   43.3495,     50150,
   43.3696,     61842,
   43.3898,     41987,
     43.41,     19764,
   43.4301,     14367,
   43.4503,     20355,
   43.4705,     30756,
   43.4906,     29403,
   43.5108,     16627,
    43.531,      7601,
   43.5511,      4143,
   43.5713,      3014,
   43.5915,      2389,
   43.6117,      2163,
   43.6318,      1943,
    43.652,      1827,
   43.6722,      1629,
   43.6923,      1470,
   43.7125,      1400,
   43.7327,      1273,
   43.7528,      1206,
    43.773,      1161,
   43.7932,      1039,
   43.8133,       997,
   43.8335,       930,
   43.8537,       929,
   43.8738,       891,
    43.894,       915,
   43.9142,       876,
   43.9344,       894,
   43.9545,       839,
   43.9747,       905,
   43.9949,       899,
    44.015,       839,
   44.0352,       895,
   44.0554,       815,
   44.0755,       763,
   44.0957,       819,
   44.1159,       802,
    44.136,       822,
   44.1562,       818,
   44.1764,       774,
   44.1965,       744,
   44.2167,       792,
   44.2369,       829,
    44.257,       845,
   44.2772,       809,
   44.2974,       832,
   44.3176,       784,
   44.3377,       831,
   44.3579,       752,
   44.3781,       790,
   44.3982,       800,
   44.4184,       735,
   44.4386,       767,
   44.4587,       753,
   44.4789,       775,
   44.4991,       790,
   44.5192,       788,
   44.5394,       772,
   44.5596,       749,
   44.5797,       840,
   44.5999,       784,
   44.6201,       788,
   44.6402,       718,
   44.6604,       709,
   44.6806,       752,
   44.7008,       794,
   44.7209,       722,
   44.7411,       707,
   44.7613,       717,
   44.7814,       724,
   44.8016,       712,
   44.8218,       692,
   44.8419,       762,
   44.8621,       689,
   44.8823,       712,
   44.9024,       766,
   44.9226,       737,
   44.9428,       743,
   44.9629,       740,
   44.9831,       731,
   45.0033,       727,
   45.0235,       774,
   45.0436,       728,
   45.0638,       766,
    45.084,       682,
   45.1041,       765,
   45.1243,       702,
   45.1445,       702,
   45.1646,       695,
   45.1848,       749,
    45.205,       751,
   45.2251,       746,
   45.2453,       738,
   45.2655,       720,
   45.2856,       731,
   45.3058,       769,
    45.326,       790,
   45.3461,       712,
   45.3663,       733,
   45.3865,       775,
   45.4067,       756,
   45.4268,       766,
    45.447,       710,
   45.4672,       717,
   45.4873,       729,
   45.5075,       688,
   45.5277,       693,
   45.5478,       676,
    45.568,       718,
   45.5882,       756,
   45.6083,       738,
   45.6285,       702,
   45.6487,       755,
   45.6688,       730,
    45.689,       730,
   45.7092,       750,
   45.7294,       680,
   45.7495,       686,
   45.7697,       697,
   45.7899,       697,
     45.81,       668,
   45.8302,       723,
   45.8504,       750,
   45.8705,       710,
   45.8907,       677,
   45.9109,       735,
    45.931,       707,
   45.9512,       705,
   45.9714,       704,
   45.9915,       701,
   46.0117,       684,
   46.0319,       710,
    46.052,       689,
   46.0722,       731,
   46.0924,       728,
   46.1126,       668,
   46.1327,       708,
   46.1529,       682,
   46.1731,       757,
   46.1932,       724,
   46.2134,       668,
   46.2336,       728,
   46.2537,       671,
   46.2739,       698,
   46.2941,       711,
   46.3142,       742,
   46.3344,       710,
   46.3546,       699,
   46.3747,       696,
   46.3949,       648,
   46.4151,       690,
   46.4352,       725,
   46.4554,       738,
   46.4756,       657,
   46.4958,       701,
   46.5159,       671,
   46.5361,       732,
   46.5563,       722,
   46.5764,       701,
   46.5966,       722,
   46.6168,       716,
   46.6369,       729,
   46.6571,       673,
   46.6773,       676,
   46.6974,       735,
   46.7176,       723,
   46.7378,       709,
   46.7579,       749,
   46.7781,       647,
   46.7983,       692,
   46.8185,       710,
   46.8386,       712,
   46.8588,       651,
    46.879,       662,
   46.8991,       729,
   46.9193,       667,
   46.9395,       744,
   46.9596,       672,
   46.9798,       742,
        47,       736,
   47.0201,       722,
   47.0403,       744,
   47.0605,       725,
   47.0806,       669,
   47.1008,       669,
    47.121,       658,
   47.1411,       656,
   47.1613,       715,
   47.1815,       638,
   47.2017,       717,
   47.2218,       680,
    47.242,       729,
   47.2622,       639,
   47.2823,       722,
   47.3025,       694,
   47.3227,       713,
   47.3428,       716,
    47.363,       699,
   47.3832,       672,
   47.4033,       697,
   47.4235,       726,
   47.4437,       682,
   47.4638,       722,
    47.484,       699,
   47.5042,       680,
   47.5243,       699,
   47.5445,       709,
   47.5647,       705,
   47.5849,       656,
    47.605,       698,
   47.6252,       686,
   47.6454,       703,
   47.6655,       683,
   47.6857,       685,
   47.7059,       673,
    47.726,       698,
   47.7462,       681,
   47.7664,       637,
   47.7865,       695,
   47.8067,       638,
   47.8269,       668,
    47.847,       655,
   47.8672,       659,
   47.8874,       676,
   47.9076,       653,
   47.9277,       652,
   47.9479,       716,
   47.9681,       680,
   47.9882,       644,
   48.0084,       665,
   48.0286,       700,
   48.0487,       658,
   48.0689,       738,
   48.0891,       638,
   48.1092,       699,
   48.1294,       692,
   48.1496,       699,
   48.1697,       648,
   48.1899,       658,
   48.2101,       656,
   48.2302,       654,
   48.2504,       655,
   48.2706,       698,
   48.2908,       703,
   48.3109,       685,
   48.3311,       650,
   48.3513,       662,
   48.3714,       663,
   48.3916,       663,
   48.4118,       722,
   48.4319,       710,
   48.4521,       645,
   48.4723,       690,
   48.4924,       705,
   48.5126,       684,
   48.5328,       724,
   48.5529,       667,
   48.5731,       651,
   48.5933,       678,
   48.6134,       725,
   48.6336,       688,
   48.6538,       710,
    48.674,       678,
   48.6941,       684,
   48.7143,       656,
   48.7345,       725,
   48.7546,       695,
   48.7748,       667,
    48.795,       657,
   48.8151,       740,
   48.8353,       692,
   48.8555,       682,
   48.8756,       702,
   48.8958,       750,
    48.916,       713,
   48.9361,       670,
   48.9563,       663,
   48.9765,       678,
   48.9967,       685,
   49.0168,       690,
    49.037,       693,
   49.0572,       794,
   49.0773,       672,
   49.0975,       648,
   49.1177,       656,
   49.1378,       678,
    49.158,       698,
   49.1782,       702,
   49.1983,       668,
   49.2185,       734,
   49.2387,       688,
   49.2588,       727,
    49.279,       720,
   49.2992,       691,
   49.3193,       632,
   49.3395,       698,
   49.3597,       715,
   49.3799,       692,
      49.4,       736,
   49.4202,       707,
   49.4404,       690,
   49.4605,       704,
   49.4807,       727,
   49.5009,       723,
    49.521,       720,
   49.5412,       713,
   49.5614,       716,
   49.5815,       722,
   49.6017,       702,
   49.6219,       747,
    49.642,       761,
   49.6622,       670,
   49.6824,       697,
   49.7025,       716,
   49.7227,       739,
   49.7429,       720,
   49.7631,       729,
   49.7832,       719,
   49.8034,       751,
   49.8236,       745,
   49.8437,       740,
   49.8639,       727,
   49.8841,       730,
   49.9042,       752,
   49.9244,       748,
   49.9446,       737,
   49.9647,       736,
   49.9849,       764,
   50.0051,       819,
   50.0252,       818,
   50.0454,       816,
   50.0656,       807,
   50.0858,       818,
   50.1059,       849,
   50.1261,       869,
   50.1463,       895,
   50.1664,       914,
   50.1866,       957,
   50.2068,      1040,
   50.2269,      1080,
   50.2471,      1155,
   50.2673,      1170,
   50.2874,      1176,
   50.3076,      1316,
   50.3278,      1355,
   50.3479,      1415,
   50.3681,      1631,
   50.3883,      1941,
   50.4084,      2687,
   50.4286,      3913,
   50.4488,      6500,
    50.469,     10422,
   50.4891,     14074,
   50.5093,     14195,
   50.5295,     10141,
   50.5496,      6625,
   50.5698,      5056,
     50.59,      5527,
   50.6101,      7072,
   50.6303,      8193,
   50.6505,      7041,
   50.6706,      4819,
   50.6908,      3181,
    50.711,      2119,
   50.7311,      1749,
   50.7513,      1373,
   50.7715,      1259,
   50.7917,      1161,
   50.8118,      1083,
    50.832,      1011,
   50.8522,       992,
   50.8723,       884,
   50.8925,       877,
   50.9127,       848,
   50.9328,       827,
    50.953,       813,
   50.9732,       812,
   50.9933,       749,
   51.0135,       782,
   51.0337,       765,
   51.0538,       741,
    51.074,       742,
   51.0942,       757,
   51.1143,       737,
   51.1345,       738,
   51.1547,       724,
   51.1749,       726,
    51.195,       759,
   51.2152,       724,
   51.2354,       680,
   51.2555,       737,
   51.2757,       704,
   51.2959,       689,
    51.316,       737,
   51.3362,       706,
   51.3564,       726,
   51.3765,       714,
   51.3967,       710,
   51.4169,       654,
    51.437,       684,
   51.4572,       648,
   51.4774,       718,
   51.4975,       707,
   51.5177,       682,
   51.5379,       712,
   51.5581,       712,
   51.5782,       701,
   51.5984,       633,
   51.6186,       699,
   51.6387,       736,
   51.6589,       682,
   51.6791,       694,
   51.6992,       705,
   51.7194,       718,
   51.7396,       681,
   51.7597,       664,
   51.7799,       689,
   51.8001,       639,
   51.8202,       677,
   51.8404,       611,
   51.8606,       613,
   51.8808,       682,
   51.9009,       654,
   51.9211,       648,
   51.9413,       626,
   51.9614,       683,
   51.9816,       681,
   52.0018,       679,
   52.0219,       658,
   52.0421,       692,
   52.0623,       642,
   52.0824,       708,
   52.1026,       635,
   52.1228,       675,
   52.1429,       678,
   52.1631,       642,
   52.1833,       664,
   52.2034,       671,
   52.2236,       710,
   52.2438,       669,
    52.264,       667,
   52.2841,       683,
   52.3043,       684,
   52.3245,       701,
   52.3446,       642,
   52.3648,       657,
    52.385,       632,
   52.4051,       643,
   52.4253,       642,
   52.4455,       673,
   52.4656,       659,
   52.4858,       655,
    52.506,       667,
   52.5261,       640,
   52.5463,       674,
   52.5665,       658,
   52.5866,       667,
   52.6068,       689,
    52.627,       694,
   52.6472,       638,
   52.6673,       642,
   52.6875,       655,
   52.7077,       652,
   52.7278,       666,
    52.748,       679,
   52.7682,       629,
   52.7883,       660,
   52.8085,       653,
   52.8287,       635,
   52.8488,       704,
    52.869,       707,
   52.8892,       678,
   52.9093,       673,
   52.9295,       635,
   52.9497,       679,
   52.9699,       656,
     52.99,       666,
   53.0102,       676,
   53.0304,       658,
   53.0505,       675,
   53.0707,       691,
   53.0909,       643,
    53.111,       653,
   53.1312,       665,
   53.1514,       628,
   53.1715,       658,
   53.1917,       665,
   53.2119,       662,
    53.232,       710,
   53.2522,       662,
   53.2724,       696,
   53.2925,       671,
   53.3127,       641,
   53.3329,       654,
   53.3531,       667,
   53.3732,       656,
   53.3934,       679,
   53.4136,       640,
   53.4337,       654,
   53.4539,       720,
   53.4741,       632,
   53.4942,       685,
   53.5144,       675,
   53.5346,       608,
   53.5547,       664,
   53.5749,       633,
   53.5951,       646,
   53.6152,       692,
   53.6354,       639,
   53.6556,       690,
   53.6757,       656,
   53.6959,       642,
   53.7161,       623,
   53.7363,       652,
   53.7564,       647,
   53.7766,       649,
   53.7968,       631,
   53.8169,       649,
   53.8371,       675,
   53.8573,       633,
   53.8774,       644,
   53.8976,       674,
   53.9178,       662,
   53.9379,       682,
   53.9581,       676,
   53.9783,       653,
   53.9984,       672,
   54.0186,       670,
   54.0388,       647,
    54.059,       655,
   54.0791,       687,
   54.0993,       649,
   54.1195,       668,
   54.1396,       653,
   54.1598,       620,
     54.18,       628,
   54.2001,       649,
   54.2203,       610,
   54.2405,       619,
   54.2606,       652,
   54.2808,       691,
    54.301,       649,
   54.3211,       637,
   54.3413,       648,
   54.3615,       718,
   54.3816,       642,
   54.4018,       647,
    54.422,       618,
   54.4422,       626,
   54.4623,       626,
   54.4825,       658,
   54.5027,       620,
   54.5228,       593,
    54.543,       670,
   54.5632,       615,
   54.5833,       599,
   54.6035,       664,
   54.6237,       699,
   54.6438,       650,
    54.664,       665,
   54.6842,       674,
   54.7043,       662,
   54.7245,       626,
   54.7447,       653,
   54.7648,       648,
    54.785,       649,
   54.8052,       664,
   54.8254,       654,
   54.8455,       686,
   54.8657,       670,
   54.8859,       629,
    54.906,       629,
   54.9262,       619,
   54.9464,       614,
   54.9665,       632,
   54.9867,       675,
   55.0069,       613,
    55.027,       639,
   55.0472,       613,
   55.0674,       685,
   55.0875,       640,
   55.1077,       693,
   55.1279,       652,
   55.1481,       690,
   55.1682,       651,
   55.1884,       605,
   55.2086,       660,
   55.2287,       642,
   55.2489,       648,
   55.2691,       637,
   55.2892,       601,
   55.3094,       666,
   55.3296,       634,
   55.3497,       631,
   55.3699,       610,
   55.3901,       648,
   55.4102,       650,
   55.4304,       682,
   55.4506,       635,
   55.4707,       620,
   55.4909,       658,
   55.5111,       622,
   55.5313,       620,
   55.5514,       658,
   55.5716,       684,
   55.5918,       656,
   55.6119,       664,
   55.6321,       667,
   55.6523,       626,
   55.6724,       665,
   55.6926,       608,
   55.7128,       666,
   55.7329,       612,
   55.7531,       660,
   55.7733,       645,
   55.7934,       648,
   55.8136,       605,
   55.8338,       658,
    55.854,       674,
   55.8741,       658,
   55.8943,       660,
   55.9145,       656,
   55.9346,       598,
   55.9548,       627,
    55.975,       603,
   55.9951,       648,
   56.0153,       626,
   56.0355,       659,
   56.0556,       642,
   56.0758,       676,
    56.096,       631,
   56.1161,       686,
   56.1363,       640,
   56.1565,       673,
   56.1766,       619,
   56.1968,       637,
    56.217,       626,
   56.2372,       611,
   56.2573,       605,
   56.2775,       644,
   56.2977,       626,
   56.3178,       647,
    56.338,       656,
   56.3582,       616,
   56.3783,       613,
   56.3985,       646,
   56.4187,       613,
   56.4388,       621,
    56.459,       626,
   56.4792,       640,
   56.4993,       640,
   56.5195,       690,
   56.5397,       647,
   56.5598,       637,
     56.58,       642,
   56.6002,       627,
   56.6204,       601,
   56.6405,       632,
   56.6607,       630,
   56.6809,       689,
    56.701,       647,
   56.7212,       643,
   56.7414,       605,
   56.7615,       646,
   56.7817,       611,
   56.8019,       620,
    56.822,       660,
   56.8422,       665,
   56.8624,       618,
   56.8825,       639,
   56.9027,       584,
   56.9229,       627,
   56.9431,       632,
   56.9632,       606,
   56.9834,       607,
   57.0036,       604,
   57.0237,       630,
   57.0439,       643,
   57.0641,       637,
   57.0842,       660,
   57.1044,       658,
   57.1246,       639,
   57.1447,       634,
   57.1649,       624,
   57.1851,       649,
   57.2052,       650,
   57.2254,       638,
   57.2456,       633,
   57.2657,       615,
   57.2859,       668,
   57.3061,       661,
   57.3263,       648,
   57.3464,       668,
   57.3666,       625,
   57.3868,       573,
   57.4069,       601,
   57.4271,       635,
   57.4473,       623,
   57.4674,       633,
   57.4876,       631,
   57.5078,       668,
   57.5279,       619,
   57.5481,       621,
   57.5683,       653,
   57.5884,       635,
   57.6086,       660,
   57.6288,       607,
   57.6489,       627,
   57.6691,       639,
   57.6893,       639,
   57.7095,       614,
   57.7296,       571,
   57.7498,       622,
     57.77,       637,
   57.7901,       569,
   57.8103,       633,
   57.8305,       628,
   57.8506,       644,
   57.8708,       649,
    57.891,       640,
   57.9111,       600,
   57.9313,       654,
   57.9515,       650,
   57.9716,       615,
   57.9918,       676,
    58.012,       626,
   58.0322,       645,
   58.0523,       612,
   58.0725,       598,
   58.0927,       594,
   58.1128,       634,
    58.133,       642,
   58.1532,       626,
   58.1733,       598,
   58.1935,       624,
   58.2137,       643,
   58.2338,       672,
    58.254,       671,
   58.2742,       639,
   58.2943,       634,
   58.3145,       655,
   58.3347,       647,
   58.3548,       666,
    58.375,       633,
   58.3952,       597,
   58.4154,       563,
   58.4355,       619,
   58.4557,       590,
   58.4759,       611,
    58.496,       611,
   58.5162,       643,
   58.5364,       642,
   58.5565,       644,
   58.5767,       633,
   58.5969,       650,
    58.617,       617,
   58.6372,       661,
   58.6574,       618,
   58.6775,       618,
   58.6977,       552,
   58.7179,       654,
    58.738,       652,
   58.7582,       551,
   58.7784,       595,
   58.7986,       639,
   58.8187,       599,
   58.8389,       628,
   58.8591,       612,
   58.8792,       621,
   58.8994,       645,
   58.9196,       614,
   58.9397,       622,
   58.9599,       610,
   58.9801,       636,
   59.0002,       599,
   59.0204,       633,
   59.0406,       655,
   59.0607,       650,
   59.0809,       592,
   59.1011,       643,
   59.1213,       600,
   59.1414,       564,
   59.1616,       655,
   59.1818,       607,
   59.2019,       583,
   59.2221,       624,
   59.2423,       625,
   59.2624,       590,
   59.2826,       597,
   59.3028,       642,
   59.3229,       627,
   59.3431,       636,
   59.3633,       619,
   59.3834,       645,
   59.4036,       612,
   59.4238,       614,
   59.4439,       586,
   59.4641,       594,
   59.4843,       618,
   59.5045,       620,
   59.5246,       652,
   59.5448,       637,
    59.565,       645,
   59.5851,       575,
   59.6053,       602,
   59.6255,       575,
   59.6456,       610,
   59.6658,       576,
    59.686,       642,
   59.7061,       629,
   59.7263,       608,
   59.7465,       610,
   59.7666,       643,
   59.7868,       623,
    59.807,       622,
   59.8271,       607,
   59.8473,       666,
   59.8675,       585,
   59.8877,       615,
   59.9078,       680,
    59.928,       589,
   59.9482,       672,
   59.9683,       618,
   59.9885,       612,
   60.0087,       627,
   60.0288,       631,
    60.049,       653,
   60.0692,       595,
   60.0893,       618,
   60.1095,       599,
   60.1297,       636,
   60.1498,       619,
     60.17,       605,
   60.1902,       685,
   60.2104,       600,
   60.2305,       611,
   60.2507,       607,
   60.2709,       657,
    60.291,       609,
   60.3112,       656,
   60.3314,       620,
   60.3515,       602,
   60.3717,       681,
   60.3919,       626,
    60.412,       638,
   60.4322,       612,
   60.4524,       617,
   60.4725,       638,
   60.4927,       629,
   60.5129,       629,
    60.533,       656,
   60.5532,       654,
   60.5734,       586,
   60.5936,       571,
   60.6137,       601,
   60.6339,       630,
   60.6541,       638,
   60.6742,       658,
   60.6944,       642,
   60.7146,       600,
   60.7347,       615,
   60.7549,       655,
   60.7751,       658,
   60.7952,       605,
   60.8154,       596,
   60.8356,       614,
   60.8557,       631,
   60.8759,       605,
   60.8961,       587,
   60.9163,       612,
   60.9364,       599,
   60.9566,       601,
   60.9768,       644,
   60.9969,       619,
   61.0171,       628,
   61.0373,       651,
   61.0574,       620,
   61.0776,       606,
   61.0978,       604,
   61.1179,       658,
   61.1381,       610,
   61.1583,       608,
   61.1784,       582,
   61.1986,       624,
   61.2188,       648,
   61.2389,       619,
   61.2591,       593,
   61.2793,       648,
   61.2995,       625,
   61.3196,       572,
   61.3398,       625,
     61.36,       599,
   61.3801,       618,
   61.4003,       647,
   61.4205,       630,
   61.4406,       568,
   61.4608,       609,
    61.481,       680,
   61.5011,       628,
   61.5213,       607,
   61.5415,       609,
   61.5616,       605,
   61.5818,       598,
    61.602,       626,
   61.6221,       640,
   61.6423,       659,
   61.6625,       643,
   61.6827,       624,
   61.7028,       658,
    61.723,       575,
   61.7432,       628,
   61.7633,       658,
   61.7835,       615,
   61.8037,       616,
   61.8238,       615,
    61.844,       630,
   61.8642,       578,
   61.8843,       597,
   61.9045,       626,
   61.9247,       645,
   61.9448,       568,
    61.965,       597,
   61.9852,       635,
   62.0054,       603,
   62.0255,       612,
   62.0457,       598,
   62.0659,       602,
    62.086,       593,
   62.1062,       629,
   62.1264,       597,
   62.1465,       624,
   62.1667,       595,
   62.1869,       632,
    62.207,       639,
   62.2272,       669,
   62.2474,       613,
   62.2675,       593,
   62.2877,       611,
   62.3079,       628,
    62.328,       611,
   62.3482,       633,
   62.3684,       595,
   62.3886,       588,
   62.4087,       598,
   62.4289,       616,
   62.4491,       632,
   62.4692,       601,
   62.4894,       600,
   62.5096,       622,
   62.5297,       606,
   62.5499,       603,
   62.5701,       594,
   62.5902,       618,
   62.6104,       617,
   62.6306,       642,
   62.6507,       651,
   62.6709,       613,
   62.6911,       645,
   62.7112,       653,
   62.7314,       628,
   62.7516,       630,
   62.7718,       586,
   62.7919,       613,
   62.8121,       624,
   62.8323,       583,
   62.8524,       605,
   62.8726,       637,
   62.8928,       607,
   62.9129,       614,
   62.9331,       602,
   62.9533,       601,
   62.9734,       593,
   62.9936,       602,
   63.0138,       630,
   63.0339,       599,
   63.0541,       661,
   63.0743,       622,
   63.0945,       600,
   63.1146,       619,
   63.1348,       596,
    63.155,       660,
   63.1751,       646,
   63.1953,       633,
   63.2155,       634,
   63.2356,       608,
   63.2558,       625,
    63.276,       589,
   63.2961,       621,
   63.3163,       640,
   63.3365,       627,
   63.3566,       599,
   63.3768,       588,
    63.397,       625,
   63.4171,       678,
   63.4373,       548,
   63.4575,       627,
   63.4777,       633,
   63.4978,       600,
    63.518,       614,
   63.5382,       594,
   63.5583,       649,
   63.5785,       632,
   63.5987,       674,
   63.6188,       594,
    63.639,       593,
   63.6592,       653,
   63.6793,       626,
   63.6995,       635,
   63.7197,       617,
   63.7398,       609,
     63.76,       599,
   63.7802,       614,
   63.8003,       598,
   63.8205,       637,
   63.8407,       577,
   63.8609,       617,
    63.881,       610,
   63.9012,       621,
   63.9214,       627,
   63.9415,       607,
   63.9617,       591,
   63.9819,       585,
    64.002,       606,
   64.0222,       615,
   64.0424,       658,
   64.0625,       582,
   64.0827,       586,
   64.1029,       601,
    64.123,       573,
   64.1432,       639,
   64.1634,       621,
   64.1836,       595,
   64.2037,       613,
   64.2239,       606,
   64.2441,       610,
   64.2642,       651,
   64.2844,       637,
   64.3046,       589,
   64.3247,       617,
   64.3449,       613,
   64.3651,       643,
   64.3852,       591,
   64.4054,       617,
   64.4256,       621,
   64.4457,       636,
   64.4659,       632,
   64.4861,       641,
   64.5062,       606,
   64.5264,       618,
   64.5466,       549,
   64.5668,       635,
   64.5869,       663,
   64.6071,       615,
   64.6273,       660,
   64.6474,       625,
   64.6676,       593,
   64.6878,       655,
   64.7079,       646,
   64.7281,       624,
   64.7483,       599,
   64.7684,       660,
   64.7886,       624,
   64.8088,       621,
   64.8289,       602,
   64.8491,       631,
   64.8693,       628,
   64.8894,       588,
   64.9096,       641,
   64.9298,       594,
     64.95,       637,
   64.9701,       651,
   64.9903,       604,
   65.0105,       611,
   65.0306,       584,
   65.0508,       567,
    65.071,       606,
   65.0911,       602,
   65.1113,       609,
   65.1315,       592,
   65.1516,       614,
   65.1718,       605,
    65.192,       601,
   65.2121,       601,
   65.2323,       629,
   65.2525,       636,
   65.2727,       646,
   65.2928,       587,
    65.313,       639,
   65.3332,       620,
   65.3533,       604,
   65.3735,       605,
   65.3937,       645,
   65.4138,       637,
    65.434,       600,
   65.4542,       599,
   65.4743,       651,
   65.4945,       590,
   65.5147,       578,
   65.5348,       623,
    65.555,       632,
   65.5752,       620,
   65.5953,       598,
   65.6155,       623,
   65.6357,       592,
   65.6559,       612,
    65.676,       625,
   65.6962,       626,
   65.7164,       606,
   65.7365,       593,
   65.7567,       624,
   65.7769,       604,
    65.797,       616,
   65.8172,       614,
   65.8374,       612,
   65.8575,       575,
   65.8777,       606,
   65.8979,       597,
    65.918,       623,
   65.9382,       640,
   65.9584,       584,
   65.9786,       640,
   65.9987,       607,
   66.0189,       672,
   66.0391,       658,
   66.0592,       611,
   66.0794,       646,
   66.0996,       642,
   66.1197,       606,
   66.1399,       597,
   66.1601,       592,
   66.1802,       587,
   66.2004,       639,
   66.2206,       590,
   66.2407,       601,
   66.2609,       587,
   66.2811,       654,
   66.3012,       634,
   66.3214,       598,
   66.3416,       618,
   66.3618,       613,
   66.3819,       623,
   66.4021,       642,
   66.4223,       617,
   66.4424,       617,
   66.4626,       590,
   66.4828,       644,
   66.5029,       592,
   66.5231,       610,
   66.5433,       587,
   66.5634,       640,
   66.5836,       603,
   66.6038,       662,
   66.6239,       661,
   66.6441,       613,
   66.6643,       604,
   66.6844,       633,
   66.7046,       629,
   66.7248,       639,
    66.745,       574,
   66.7651,       621,
   66.7853,       638,
   66.8055,       588,
   66.8256,       657,
   66.8458,       557,
    66.866,       578,
   66.8861,       612,
   66.9063,       627,
   66.9265,       610,
   66.9466,       630,
   66.9668,       639,
    66.987,       598,
   67.0071,       639,
   67.0273,       639,
   67.0475,       638,
   67.0677,       605,
   67.0878,       617,
    67.108,       595,
   67.1282,       579,
   67.1483,       572,
   67.1685,       631,
   67.1887,       582,
   67.2088,       682,
    67.229,       591,
   67.2492,       559,
   67.2693,       595,
   67.2895,       590,
   67.3097,       621,
   67.3298,       624,
     67.35,       640,
   67.3702,       608,
   67.3903,       600,
   67.4105,       608,
   67.4307,       631,
   67.4509,       641,
    67.471,       586,
   67.4912,       582,
   67.5114,       618,
   67.5315,       593,
   67.5517,       610,
   67.5719,       594,
    67.592,       600,
   67.6122,       561,
   67.6324,       646,
   67.6525,       566,
   67.6727,       568,
   67.6929,       620,
    67.713,       626,
   67.7332,       597,
   67.7534,       603,
   67.7735,       587,
   67.7937,       624,
   67.8139,       624,
   67.8341,       575,
   67.8542,       622,
   67.8744,       609,
   67.8946,       601,
   67.9147,       616,
   67.9349,       631,
   67.9551,       611,
   67.9752,       583,
   67.9954,       631,
   68.0156,       640,
   68.0357,       625,
   68.0559,       613,
   68.0761,       637,
   68.0962,       599,
   68.1164,       616,
   68.1366,       601,
   68.1568,       625,
   68.1769,       580,
   68.1971,       583,
   68.2173,       673,
   68.2374,       614,
   68.2576,       625,
   68.2778,       607,
   68.2979,       611,
   68.3181,       598,
   68.3383,       615,
   68.3584,       662,
   68.3786,       608,
   68.3988,       596,
   68.4189,       592,
   68.4391,       664,
   68.4593,       647,
   68.4794,       625,
   68.4996,       597,
   68.5198,       581,
     68.54,       632,
   68.5601,       606,
   68.5803,       604,
   68.6005,       598,
   68.6206,       607,
   68.6408,       627,
    68.661,       685,
   68.6811,       634,
   68.7013,       640,
   68.7215,       577,
   68.7416,       611,
   68.7618,       676,
    68.782,       628,
   68.8021,       629,
   68.8223,       635,
   68.8425,       599,
   68.8626,       590,
   68.8828,       584,
    68.903,       607,
   68.9232,       636,
   68.9433,       623,
   68.9635,       569,
   68.9837,       646,
   69.0038,       678,
    69.024,       575,
   69.0442,       603,
   69.0643,       582,
   69.0845,       654,
   69.1047,       581,
   69.1248,       604,
    69.145,       642,
   69.1652,       603,
   69.1853,       623,
   69.2055,       648,
   69.2257,       618,
   69.2459,       641,
    69.266,       636,
   69.2862,       587,
   69.3064,       613,
   69.3265,       652,
   69.3467,       634,
   69.3669,       619,
    69.387,       598,
   69.4072,       614,
   69.4274,       603,
   69.4475,       636,
   69.4677,       585,
   69.4879,       608,
    69.508,       629,
   69.5282,       596,
   69.5484,       568,
   69.5685,       598,
   69.5887,       648,
   69.6089,       636,
   69.6291,       633,
   69.6492,       609,
   69.6694,       571,
   69.6896,       607,
   69.7097,       576,
   69.7299,       610,
   69.7501,       604,
   69.7702,       564,
   69.7904,       639,
   69.8106,       617,
   69.8307,       606,
   69.8509,       609,
   69.8711,       637,
   69.8912,       644,
   69.9114,       607,
   69.9316,       607,
   69.9517,       562,
   69.9719,       623,
   69.9921,       636,
   70.0123,       627,
   70.0324,       631,
   70.0526,       600,
   70.0728,       606,
   70.0929,       601,
   70.1131,       641,
   70.1333,       587,
   70.1534,       640,
   70.1736,       614,
   70.1938,       620,
   70.2139,       620,
   70.2341,       572,
   70.2543,       594,
   70.2744,       587,
   70.2946,       643,
   70.3148,       652,
    70.335,       603,
   70.3551,       555,
   70.3753,       636,
   70.3955,       575,
   70.4156,       582,
   70.4358,       610,
    70.456,       562,
   70.4761,       558,
   70.4963,       610,
   70.5165,       622,
   70.5366,       596,
   70.5568,       589,
    70.577,       598,
   70.5971,       645,
   70.6173,       623,
   70.6375,       650,
   70.6576,       585,
   70.6778,       624,
    70.698,       633,
   70.7182,       599,
   70.7383,       575,
   70.7585,       608,
   70.7787,       589,
   70.7988,       593,
    70.819,       566,
   70.8392,       621,
   70.8593,       602,
   70.8795,       586,
   70.8997,       608,
   70.9198,       587,
     70.94,       598,
   70.9602,       650,
   70.9803,       591,
   71.0005,       584,
   71.0207,       621,
   71.0409,       607,
    71.061,       616,
   71.0812,       622,
   71.1014,       610,
   71.1215,       663,
   71.1417,       618,
   71.1619,       597,
    71.182,       624,
   71.2022,       609,
   71.2224,       633,
   71.2425,       578,
   71.2627,       623,
   71.2829,       658,
    71.303,       647,
   71.3232,       614,
   71.3434,       585,
   71.3635,       610,
   71.3837,       605,
   71.4039,       633,
   71.4241,       611,
   71.4442,       640,
   71.4644,       639,
   71.4846,       666,
   71.5047,       599,
   71.5249,       639,
   71.5451,       632,
   71.5652,       611,
   71.5854,       642,
   71.6056,       616,
   71.6257,       631,
   71.6459,       624,
   71.6661,       615,
   71.6862,       665,
   71.7064,       617,
   71.7266,       584,
   71.7467,       603,
   71.7669,       646,
   71.7871,       616,
   71.8073,       602,
   71.8274,       662,
   71.8476,       637,
   71.8678,       608,
   71.8879,       670,
   71.9081,       660,
   71.9283,       602,
   71.9484,       633,
   71.9686,       623,
   71.9888,       627,
   72.0089,       637,
   72.0291,       653,
   72.0493,       625,
   72.0694,       613,
   72.0896,       632,
   72.1098,       608,
     72.13,       663,
   72.1501,       627,
   72.1703,       623,
   72.1905,       637,
   72.2106,       622,
   72.2308,       576,
    72.251,       633,
   72.2711,       632,
   72.2913,       649,
   72.3115,       658,
   72.3316,       653,
   72.3518,       649,
    72.372,       648,
   72.3921,       621,
   72.4123,       635,
   72.4325,       645,
   72.4526,       700,
   72.4728,       599,
    72.493,       641,
   72.5132,       604,
   72.5333,       695,
   72.5535,       604,
   72.5737,       640,
   72.5938,       668,
    72.614,       698,
   72.6342,       662,
   72.6543,       634,
   72.6745,       623,
   72.6947,       605,
   72.7148,       605,
    72.735,       673,
   72.7552,       618,
   72.7753,       651,
   72.7955,       612,
   72.8157,       620,
   72.8358,       651,
    72.856,       623,
   72.8762,       635,
   72.8964,       633,
   72.9165,       696,
   72.9367,       614,
   72.9569,       611,
    72.977,       636,
   72.9972,       617,
   73.0174,       610,
   73.0375,       605,
   73.0577,       639,
   73.0779,       671,
    73.098,       612,
   73.1182,       626,
   73.1384,       633,
   73.1585,       641,
   73.1787,       598,
   73.1989,       699,
   73.2191,       671,
   73.2392,       626,
   73.2594,       664,
   73.2796,       736,
   73.2997,       689,
   73.3199,       646,
   73.3401,       639,
   73.3602,       638,
   73.3804,       667,
   73.4006,       651,
   73.4207,       648,
   73.4409,       683,
   73.4611,       677,
   73.4812,       663,
   73.5014,       695,
   73.5216,       716,
   73.5417,       675,
   73.5619,       644,
   73.5821,       641,
   73.6023,       679,
   73.6224,       669,
   73.6426,       694,
   73.6628,       723,
   73.6829,       716,
   73.7031,       721,
   73.7233,       789,
   73.7434,       783,
   73.7636,       805,
   73.7838,       822,
   73.8039,       891,
   73.8241,       907,
   73.8443,       863,
   73.8644,       822,
   73.8846,       905,
   73.9048,       929,
   73.9249,       939,
   73.9451,       974,
   73.9653,      1032,
   73.9855,      1084,
   74.0056,      1173,
   74.0258,      1309,
    74.046,      1538,
   74.0661,      1917,
   74.0863,      2587,
   74.1065,      3969,
   74.1266,      6454,
   74.1468,     10243,
    74.167,     12583,
   74.1871,     11100,
   74.2073,      7450,
   74.2275,      4534,
   74.2476,      2942,
   74.2678,      2335,
    74.288,      2178,
   74.3082,      2367,
   74.3283,      3074,
   74.3485,      4488,
   74.3687,      6113,
   74.3888,      6538,
    74.409,      5352,
   74.4292,      3751,
   74.4493,      2384,
   74.4695,      1691,
   74.4897,      1354,
   74.5098,      1171,
     74.53,      1030,
   74.5502,       974,
   74.5703,       906,
   74.5905,       875,
   74.6107,       847,
   74.6308,       819,
    74.651,       793,
   74.6712,       780,
   74.6914,       769,
   74.7115,       755,
   74.7317,       702,
   74.7519,       716,
    74.772,       718,
   74.7922,       748,
   74.8124,       705,
   74.8325,       686,
   74.8527,       687,
   74.8729,       701,
    74.893,       687,
   74.9132,       669,
   74.9334,       691,
   74.9535,       664,
   74.9737,       639,
   74.9939,       648,
    75.014,       652,
   75.0342,       651,
   75.0544,       631,
   75.0746,       677,
   75.0947,       672,
   75.1149,       673,
   75.1351,       677,
   75.1552,       647,
   75.1754,       634,
   75.1956,       663,
   75.2157,       612,
   75.2359,       634,
   75.2561,       650,
   75.2762,       645,
   75.2964,       659,
   75.3166,       652,
   75.3367,       617,
   75.3569,       647,
   75.3771,       617,
   75.3973,       612,
   75.4174,       638,
   75.4376,       649,
   75.4578,       580,
   75.4779,       639,
   75.4981,       596,
   75.5183,       628,
   75.5384,       614,
   75.5586,       618,
   75.5788,       588,
   75.5989,       658,
   75.6191,       627,
   75.6393,       613,
   75.6594,       629,
   75.6796,       618,
   75.6998,       617,
   75.7199,       642,
   75.7401,       647,
   75.7603,       627,
   75.7805,       627,
   75.8006,       627,
   75.8208,       618,
    75.841,       615,
   75.8611,       618,
   75.8813,       599,
   75.9015,       654,
   75.9216,       643,
   75.9418,       585,
    75.962,       664,
   75.9821,       618,
   76.0023,       636,
   76.0225,       673,
   76.0426,       658,
   76.0628,       654,
    76.083,       587,
   76.1032,       626,
   76.1233,       594,
   76.1435,       643,
   76.1637,       621,
   76.1838,       638,
    76.204,       657,
   76.2242,       629,
   76.2443,       587,
   76.2645,       578,
   76.2847,       622,
   76.3048,       654,
    76.325,       641,
   76.3452,       606,
   76.3653,       648,
   76.3855,       625,
   76.4057,       605,
   76.4258,       587,
    76.446,       629,
   76.4662,       633,
   76.4864,       614,
   76.5065,       586,
   76.5267,       589,
   76.5469,       598,
    76.567,       650,
   76.5872,       639,
   76.6074,       623,
   76.6275,       616,
   76.6477,       589,
   76.6679,       655,
    76.688,       644,
   76.7082,       622,
   76.7284,       631,
   76.7485,       604,
   76.7687,       588,
   76.7889,       624,
    76.809,       588,
   76.8292,       646,
   76.8494,       604,
   76.8696,       577,
   76.8897,       651,
   76.9099,       590,
   76.9301,       670,
   76.9502,       626,
   76.9704,       642,
   76.9906,       591,
   77.0107,       602,
   77.0309,       653,
   77.0511,       619,
   77.0712,       665,
   77.0914,       603,
   77.1116,       620,
   77.1317,       621,
   77.1519,       605,
   77.1721,       605,
   77.1923,       612,
   77.2124,       601,
   77.2326,       610,
   77.2528,       593,
   77.2729,       598,
   77.2931,       635,
   77.3133,       657,
   77.3334,       582,
   77.3536,       625,
   77.3738,       606,
   77.3939,       610,
   77.4141,       617,
   77.4343,       647,
   77.4544,       610,
   77.4746,       611,
   77.4948,       648,
   77.5149,       617,
   77.5351,       629,
   77.5553,       587,
   77.5755,       608,
   77.5956,       607,
   77.6158,       618,
    77.636,       658,
   77.6561,       582,
   77.6763,       579,
   77.6965,       628,
   77.7166,       601,
   77.7368,       621,
    77.757,       617,
   77.7771,       631,
   77.7973,       654,
   77.8175,       621,
   77.8376,       662,
   77.8578,       620,
    77.878,       584,
   77.8981,       590,
   77.9183,       566,
   77.9385,       614,
   77.9587,       639,
   77.9788,       633,
    77.999,       682,
