;RAW4.00
[RawHeader]
Date=11/26/2025
EstimatedTotalTime=426.6
FurtherDQLReading=0
HardwareIndicator=65519
MeasuredTotalTime=4.2944
MeasurementFlag=1
NumberOfMeasuredRanges=1
NumberOfRanges=1
Time=15:30:48

[VarInfo]
Type=USER
Flags=0
Value=Lab Manager

[VarInfo]
Type=SAMPLEID
Flags=0
Value=Commander Sample ID

[VarInfo]
Type=COMMENT
Flags=0
Value=

[VarInfo]
Type=UTF
Flags=0
Value=

[VarInfo]
Type=CREATOR
Flags=0
Value=V5Converter

[VarInfo]
Type=CREATOR_VERSION
Flags=0
Value=4.4.16.0

[HardwareConfiguration]
AbsorptionFactor=9999
ActivateAbsorber=0
Alpha1=1.5406
Alpha2=1.54439
AlphaAverage=1.54184
AlphaRatio=0.5
Analyzer=0
Anode=Cu
AntiScatteringSlit=9999
BeamOpticsFlags=0
Beta=1.39222
BetaRelativeIntensity=0
DeactivateAbsorber=0
DetectorSlit=9999
DivergenceSlit=9999
GoniometerControl=0
GoniometerDiameter=282
GoniometerModel=256
GoniometerStage=7
Monochromator=0
NearSampleSlit=9999
PrimarySollerSlit=9999
SampleChanger=0
SecondSollerSlit=9999
SynchronousAxis=0
ThinFilmAttachment=9999
WaveUnit=A

[RangeHeader]
ActuallyUsedLambda=1.54184
AdditionalDetectorMask=257
DataRecordLength=4
DelayTime=0
DisplayPlaneNumber=0
EstimatedScanTime=427
ExtraParametersMask=0
GeneratorCurrent=10
GeneratorVoltage=30
Increment=0.0201685
Increment3=0
NumberOfCompletedData=1885
NumberOfCounts=1
NumberOfDetectors=0
NumberOfDrives=3
NumberOfEncoderDrives=0
NumberOfMeasuredData=1885
NumberOfVaryingParameters=0
RangeStartTime=0
RotationSpeed=0
ScanMode=1
ScanType=Locked Coupled
SimulatedMeasConditions=0
SlitChangerIn=0
SmootingWidth=0
Start=40.0015
Steps=1885
SynchronousRotation=0
Time=33

[VarInfo]
Type=PSD_DISCRIM
Flags=0
Value=0.11;0.5

[VarInfo]
Type=OPTICS_V5
Flags=0
Value=H4sIAAAAAAAEAO1d63KjOhJ+Fda/zqmtBIPtXKaITzm2J+OaOHbFTnKmtrZcBORYZzC4AOey//d99hl2X2x1QViIS8C3JBN+TCaodWm6+2vUUkfS/nieW9IjcD3o2GcV5bBakYBtOCa0H84qS396oBxV/mhqF44NnTnwgdt25gvHBrbf0X1dQq1t78uzB88qM99ffJHlp6enw6faoeM+yGq1qsh/9i9HxgzM9QNoe75uG6AStjJfb1WRbqEH7y1wpc/BWWXFR0joAM9w4cInL/Bj4UHLsSW+3oXrLBc9NBZ6t3Pgojcb3P8FDH+o+7OzitwBj9AAMt+CrxUfl1Lblu55QRehTORzoM8XqLDt2L4ObeBy/coBc6yHluEvdYtxoR6o1ePT02O5h8TkLue4tzhrTW2EZGjqqBswQr3oFvyXjl+9OdUtD2hyGln7c259hcAyrwHqHhq4EDFpA/KbJ8lNjfKD1ToCFipvdm00JDA1OUbR6Btwou9Ab2HpL824AjQ5tXK8m+bF4OrHhPzodEft64TGrBVWDOsoPhpP1bBWhrxWvISy1r0hIUP+4r8skMLHrm78xG8sGODQhXPdfSHkZBMMakgD9GxISBvSeHkPOIFIQeOidilHx44baRI9r5mSRmyEDSxUYBJZ3blu/xy4JnCvAfYzAL0wsdX3b8s5NVnMwIfj6+8T9KPV/l7IxHm5Jhp5z0OvBh9BE+kGCS98DAk920dCZMIVSikeHA9SJulgmhwp1bAq2ZMXfZT4B2LSAxc+QFu3ogSlwl6OWi7Ssb/0moPwnSLFGmsYPPedJdIj0qJQrgWE0MJ5JCOdEXICmjFtjmnJUA7J0tRxpRHQLUBtYA3AytxYcejGiMm4JZa46kmmLG0LrhEWBa3xcus++8A2MZDfDYZpCWdMkQKtj5nwHfcltGVFk+OFGseMJxH2qHoYWND7cnJosmJN5ku1uCnh1+H65qyTKx3Y545jAR1NEG5s6BPpdiDSG56bXcI59IlYwiKvWdVk7knrgKm+tPxb3VoCboigVyQ96CPXTshnFewlKri/oQta5l9LD8GnYEuZYx67mbHTJoqe6ZblPK0cjVCOarZnwPgJzFUVVqC1ESPOHKsWvx33pNH5Zl7erhEyxkg2xVq1lr7TdoHug6HrLIDrvzAWEyiR9/eIRfdMhLKr5fweuE21rslCEdaQRS08UPF//xMyUSUc9B0TNG8Quqbos4xMnTwz90Y+PzEHluy7tuWt5HgP/ND5vNXOHBXjLvaN2aNbYuh5A79Evm3IJvErCL6JJ23LP418rD3OPSHRTOHDEjnla/gw85sIdabECnU0BoKwUKWYS+vrz5fAfvBnTbXRwKJhj2nOjrJISkNktZevObqMVm/q5DL4SnFwGS02cm5pFninPwKqkpa1mOmKYIUieVuWOJh2nCVqyWzxf//ehzWm2Nxw9uJBQ7dIeQJnTA/KYaNePXrNFtfo7ca2MPfItOjcf/WMZelYS+paugfVBtErK9H60Ibz5bx5oBwenx4fndaUWv3kSK0pjePu32vVE4S4oAZGIvklvWZQ4W0Rs4b0UpC0Rk/7QJiajTD10yOsXjvdJsRYdyXGNhLfFkDGuto1yh6Bqz+IoV6M/ulxppzUt4kz1l2Js43EtwWcsa52jLNz4OupIMPET46w2qmqqttD2Kq7EmEbiW9jhK262jHCrvGaRirECHVXGHuvCFutth02NsJWrKMSVWsKbh08xTrZCZK+OsbSG7gQ2D5ZHRSgJJK3tspG1g4H057tH9XfH6CibEVXr/OjKbkXhfRCBYDfqOeDOWLs0nmABl3VvJn0rm5bl73OpP2tN9TkFYkJfAye/WbPftQtiMQzg4uVjCJaIvW07+CFjI1lEf6uyTEWsnm67F2lsnIJbSARW0kbWtlk6OEgY+yhA20/e3B1k8GZLoaD0auqCHeKD6S58wgk35HmwJjpNrYKCTmTxd/SeKxl8/ienF2WXefzdFk9bOTm6N5Lz546UqiqhAVciZbr3FOQY3BWIVUkVBrdJr+ZtC6H31rRcrGRhEeyyEjkXXKxo0bYURPZUVPYUbPYUQuzEywL8PxEyoQBQloib5PW7UUWe0HrokySmCrg8D78PeybkkWGzrvjVjIvuH4+FiIbUQEDqBXeyxN46LJSkY3uZbffvRqnSMV2TCAFbaXVSDlkQmfBvNq4EkHsASVZZdetcW+QpTTSOp+8YlOLgL9pYnk4ToQicvl10J4MrpMZJONJkeZyfMe6Ed+xvgA2skTfcYU8TFacvPmcsQFLZ8dr7r82tXQiP3O7dSw/voYXlO4q5vl5u6WEjcypLxqFfRNqVSHyCL4FKaFHctihVBMCjFp1f7FErbF+MBEXRsEvZLo55TW19tJ1sT+LmlpQuitTm7f2YWpolHD6sQ1TaySFsh/E0uKy2LulDZ0nkgHOmxQp25WV3aUEnW+xcHMnRJr5lluqhymm+EkWW+4491hde7Ul3ssWbV9+7YtfJA0UTQyNGXBfyVbbPA8ud74bklUw60j9YgWfilQ/I4dzraYmBmuZ2QhiKJW9qxqLdLI3h6IxR/YytzAXT1vD42MIIXVJnC4nR8cylyaJ7OZRhxZeJcCPHu2eWH2ZQFkmUJYJlGUCZZlA+fE2xcsEyvezJV4mUP6aCCsTKN8TxsoEyl8VZ2UC5XvCWZlA+ashrEygfE8IKxMoywTKMoGyTKAsEyjLBMoygbJMoCwTKMsEyjKBskygLBMoywTKMoGyTKAsEyjLBMoygbJMoHzr+KNMoCwTKD9tAiXLkUS/iumT7KzT+Cmg4tm7GScqd+cL/4UkG4arGcVOT+72h4PRhP4scnoyGTg0xcTzk2U+BzLzcGMl7XBjde+HGw8WbefceR5MR45lATfhiGNKyDjkmKsg/WbotmTQQ8ElNJZEifQE7N/XgX9k+LhXSSBnuYaE6hunwkb7FPSZfOxxRGTIPPKL8PePe2KymphYK0bAR+scevtxXAin6Q2diJrmRGpv50S+wmdgEkNlcw/RmVjQz3IliCz1U2CAaRv4kdXICV5EJGb6ELHy5h6E61FQZYr/YA2o98gntQ/sOmq5XMfxeudlE7OmVzSsTJpYMhZe0hcRy1SR/jGf/zPDjH/DR/7fA2QfErQ9hAVgol98R9I5hWWaMq5mhBds4KeJUp0oaQYcIb5mwIVtN52ZmPP5qH/5US30lx930PRnYm4HLtvZktP8/WxBxzgL44DNsuvjPeVdZqh+7nWGuODWWWeI97KTtI5vABumgB1a+LnBszXslNBZz+i3gpzt3wSirjOzGenzhQXuZgBYY/QC/KUgIkkjH65UJ0ChmfamMj+F+lCxGJtFbxiJ1dIisfpGkRjhMR6HvT9h3thLD5hkeHHgLInKwm1g17oJl16CldWVYB+fXrg3mE494KdZfesZevz3Iay2B1ceYybnbh1ywVU1LSlVPTypn6qNRkNN8LvHjcOTRv24dqQqvK8VhNAM7mETbitc+w7DEUCRgJl9i2FYh7v9roNCXwNnMmzhLkORh4SYKLFGsfsMwz42ifVFRj70nYaF9FrM/4zwzYaj4jcbRuW787sNw+F2cbvhyRss3uHlOks3wMyxzMQtgMsX+xm8pBxzcfnj6s/ujy654bCjSsOZ7olX4OYEsRyOEwezQMpa3mDWKOO8X3k4Wj2jProvYAvX6KYzLmrzl7v28CTPUlxNiU9Yi8wL0ecUu0XdWrmWfniNJk2pxn6HJHazGl4xZ9PpjyfkXwFHw4ba6R6gstmscZebgP09bgIKCIswkLYN2N/zNmAmj6JSs3YC+59rJ1Cp53Ii1c+wFVhGSkUjpbRAqXF4dHrSUJRqPWmBqqEcHldP68dqfQeB0sontAHGieA9hcKI4+SmzLSadMAw70kjnLfkkW8dVkPLMIDnOS4E3hoRE+Mi7j2jlLwRUvyl1/ekrIcPHRqtqcpiLudicNWekB9FHA7lZ+eh0Ri4qHQnkdHp3mdFwxkkShPAfO0EGXBRYgTUqKlErdE1Wb0CGJXZGHSdNqGDKCsJ1TJnP6vqMuJUZpxuDuAUxgVFpsREEgUYMFu+rxszPNBZ5WDPRwluc5pzmitr4SQ+y+l5TBQhKMMCjfMcZLfIWj48ALPjYkzSv8ZE3eHvWs9sIu2S3oNHTCEVRwtgwGnwt6KsUpyC4BLvvcgEK46DYs5u+K03mpAfRZxdFKHbnGBVi0yvQisOP5lEYfRDEPwf22IqXU7pckqXI7qcECvsd+8VLsZPznhGTjB6jZVIzZz8ZA+dc9yig6ZEJvFifFQxXo8YAd9H0PIkfi6GHAXNPKxILbzB7vVR6AbplI5NtLGOuVT/5i2e1Rn4EFu+VFtBkewhB6uqmiyUa3yqI/WAkWUTj/6JxSqYYK6D6Pv/u9RXv2COAAA=

[PSD]
ActualTwoTheta=9999
FirstUsedChannel=0
FixedPSD=0
PSDOpening=4.99171
PSDType=5

[Drive]
DriveFlags=1
DriveName=2Theta
DriveNumber=2
DriveOffset=0
OffsetIndex=0
OscillationAmplitude=0
OscillationSpeed=0
StartPosition=40.0015

[Drive]
DriveFlags=1
DriveName=Theta
DriveNumber=1
DriveOffset=0
OffsetIndex=0
OscillationAmplitude=0
OscillationSpeed=0
StartPosition=20.0007

[Drive]
DriveFlags=1
DriveName=Phi
DriveNumber=3
DriveOffset=0
OffsetIndex=0
OscillationAmplitude=0
OscillationSpeed=0
StartPosition=0

[Data]
     Angle,       PSD,
   40.0015,       636,
   40.0217,       597,
   40.0418,       652,
    40.062,       600,
   40.0822,       601,
   40.1023,       623,
   40.1225,       643,
   40.1427,       626,
   40.1628,       598,
    40.183,       645,
   40.2032,       634,
   40.2233,       593,
   40.2435,       647,
   40.2637,       635,
   40.2838,       627,
    40.304,       674,
   40.3242,       645,
   40.3444,       656,
   40.3645,       587,
   40.3847,       615,
   40.4049,       634,
    40.425,       594,
   40.4452,       613,
   40.4654,       622,
   40.4855,       609,
   40.5057,       632,
   40.5259,       589,
    40.546,       642,
   40.5662,       605,
   40.5864,       581,
   40.6065,       616,
   40.6267,       593,
   40.6469,       616,
   40.6671,       620,
   40.6872,       634,
   40.7074,       653,
   40.7276,       622,
   40.7477,       630,
   40.7679,       638,
   40.7881,       657,
   40.8082,       583,
   40.8284,       630,
   40.8486,       611,
   40.8687,       633,
   40.8889,       653,
   40.9091,       653,
   40.9292,       611,
   40.9494,       621,
   40.9696,       623,
   40.9897,       616,
   41.0099,       621,
   41.0301,       630,
   41.0503,       645,
   41.0704,       621,
   41.0906,       663,
   41.1108,       632,
   41.1309,       634,
   41.1511,       633,
   41.1713,       647,
   41.1914,       594,
   41.2116,       626,
   41.2318,       612,
   41.2519,       609,
   41.2721,       568,
   41.2923,       616,
   41.3124,       652,
   41.3326,       598,
   41.3528,       613,
   41.3729,       624,
   41.3931,       651,
   41.4133,       631,
   41.4335,       601,
   41.4536,       603,
   41.4738,       620,
    41.494,       582,
   41.5141,       679,
   41.5343,       668,
   41.5545,       657,
   41.5746,       650,
   41.5948,       622,
    41.615,       591,
   41.6351,       687,
   41.6553,       667,
   41.6755,       665,
   41.6956,       624,
   41.7158,       689,
    41.736,       710,
   41.7562,       685,
   41.7763,       676,
   41.7965,       749,
   41.8167,       727,
   41.8368,       764,
    41.857,       709,
   41.8772,       706,
   41.8973,       751,
   41.9175,       692,
   41.9377,       726,
   41.9578,       748,
    41.978,       698,
   41.9982,       766,
   42.0183,       771,
   42.0385,       740,
   42.0587,       788,
   42.0788,       722,
    42.099,       751,
   42.1192,       798,
   42.1394,       774,
   42.1595,       721,
   42.1797,       786,
   42.1999,       776,
     42.22,       744,
   42.2402,       753,
   42.2604,       757,
   42.2805,       740,
   42.3007,       808,
   42.3209,       743,
    42.341,       754,
   42.3612,       735,
   42.3814,       795,
   42.4015,       794,
   42.4217,       752,
   42.4419,       792,
    42.462,       748,
   42.4822,       749,
   42.5024,       748,
   42.5226,       772,
   42.5427,       817,
   42.5629,       781,
   42.5831,       769,
   42.6032,       815,
   42.6234,       813,
   42.6436,       849,
   42.6637,       755,
   42.6839,       764,
   42.7041,       805,
   42.7242,       810,
   42.7444,       847,
   42.7646,       827,
   42.7847,       867,
   42.8049,       910,
   42.8251,       975,
   42.8453,       940,
   42.8654,       959,
   42.8856,      1030,
   42.9058,      1125,
   42.9259,      1088,
   42.9461,      1181,
   42.9663,      1285,
   42.9864,      1257,
   43.0066,      1376,
   43.0268,      1418,
   43.0469,      1509,
   43.0671,      1707,
   43.0873,      1821,
   43.1074,      1990,
   43.1276,      2163,
   43.1478,      2233,
   43.1679,      2395,
   43.1881,      2882,
   43.2083,      3802,
   43.2285,      5580,
   43.2486,     10501,
   43.2688,     24608,
    43.289,     51293,
   43.3091,     65233,
   43.3293,     41484,
   43.3495,     18576,
   43.3696,     13407,
   43.3898,     19927,
     43.41,     32083,
   43.4301,     30667,
   43.4503,     16441,
   43.4705,      7113,
   43.4906,      4027,
   43.5108,      2902,
    43.531,      2353,
   43.5511,      2130,
   43.5713,      1879,
   43.5915,      1831,
   43.6117,      1676,
   43.6318,      1478,
    43.652,      1389,
   43.6722,      1259,
   43.6923,      1180,
   43.7125,      1150,
   43.7327,      1134,
   43.7528,       987,
    43.773,       997,
   43.7932,       890,
   43.8133,       905,
   43.8335,       908,
   43.8537,       876,
   43.8738,       900,
    43.894,       827,
   43.9142,       841,
   43.9344,       872,
   43.9545,       837,
   43.9747,       853,
   43.9949,       769,
    44.015,       795,
   44.0352,       752,
   44.0554,       796,
   44.0755,       853,
   44.0957,       743,
   44.1159,       790,
    44.136,       809,
   44.1562,       736,
   44.1764,       796,
   44.1965,       778,
   44.2167,       731,
   44.2369,       800,
    44.257,       773,
   44.2772,       772,
   44.2974,       778,
   44.3176,       749,
   44.3377,       750,
   44.3579,       757,
   44.3781,       790,
   44.3982,       754,
   44.4184,       750,
   44.4386,       765,
   44.4587,       695,
   44.4789,       723,
   44.4991,       713,
   44.5192,       735,
   44.5394,       705,
   44.5596,       785,
   44.5797,       772,
   44.5999,       767,
   44.6201,       718,
   44.6402,       718,
   44.6604,       758,
   44.6806,       697,
   44.7008,       752,
   44.7209,       678,
   44.7411,       696,
   44.7613,       750,
   44.7814,       756,
   44.8016,       737,
   44.8218,       788,
   44.8419,       698,
   44.8621,       734,
   44.8823,       713,
   44.9024,       714,
   44.9226,       687,
   44.9428,       682,
   44.9629,       745,
   44.9831,       720,
   45.0033,       663,
   45.0235,       724,
   45.0436,       716,
   45.0638,       729,
    45.084,       697,
   45.1041,       710,
   45.1243,       700,
   45.1445,       708,
   45.1646,       682,
   45.1848,       733,
    45.205,       696,
   45.2251,       732,
   45.2453,       690,
   45.2655,       745,
   45.2856,       761,
   45.3058,       728,
    45.326,       734,
   45.3461,       670,
   45.3663,       683,
   45.3865,       730,
   45.4067,       694,
   45.4268,       764,
    45.447,       675,
   45.4672,       631,
   45.4873,       722,
   45.5075,       647,
   45.5277,       686,
   45.5478,       657,
    45.568,       711,
   45.5882,       657,
   45.6083,       729,
   45.6285,       645,
   45.6487,       717,
   45.6688,       730,
    45.689,       714,
   45.7092,       663,
   45.7294,       736,
   45.7495,       705,
   45.7697,       672,
   45.7899,       652,
     45.81,       710,
   45.8302,       699,
   45.8504,       703,
   45.8705,       682,
   45.8907,       717,
   45.9109,       722,
    45.931,       673,
   45.9512,       675,
   45.9714,       648,
   45.9915,       691,
   46.0117,       691,
   46.0319,       682,
    46.052,       671,
   46.0722,       680,
   46.0924,       679,
   46.1126,       740,
   46.1327,       659,
   46.1529,       698,
   46.1731,       686,
   46.1932,       654,
   46.2134,       709,
   46.2336,       656,
   46.2537,       669,
   46.2739,       672,
   46.2941,       645,
   46.3142,       669,
   46.3344,       684,
   46.3546,       685,
   46.3747,       674,
   46.3949,       734,
   46.4151,       603,
   46.4352,       677,
   46.4554,       663,
   46.4756,       691,
   46.4958,       679,
   46.5159,       664,
   46.5361,       682,
   46.5563,       708,
   46.5764,       667,
   46.5966,       696,
   46.6168,       700,
   46.6369,       705,
   46.6571,       713,
   46.6773,       667,
   46.6974,       704,
   46.7176,       708,
   46.7378,       659,
   46.7579,       646,
   46.7781,       660,
   46.7983,       677,
   46.8185,       690,
   46.8386,       701,
   46.8588,       687,
    46.879,       672,
   46.8991,       683,
   46.9193,       708,
   46.9395,       691,
   46.9596,       693,
   46.9798,       686,
        47,       691,
   47.0201,       685,
   47.0403,       652,
   47.0605,       660,
   47.0806,       679,
   47.1008,       685,
    47.121,       664,
   47.1411,       659,
   47.1613,       683,
   47.1815,       702,
   47.2017,       712,
   47.2218,       707,
    47.242,       712,
   47.2622,       658,
   47.2823,       650,
   47.3025,       684,
   47.3227,       700,
   47.3428,       682,
    47.363,       711,
   47.3832,       707,
   47.4033,       656,
   47.4235,       694,
   47.4437,       671,
   47.4638,       690,
    47.484,       696,
   47.5042,       651,
   47.5243,       663,
   47.5445,       648,
   47.5647,       657,
   47.5849,       695,
    47.605,       656,
   47.6252,       672,
   47.6454,       634,
   47.6655,       662,
   47.6857,       617,
   47.7059,       662,
    47.726,       690,
   47.7462,       671,
   47.7664,       667,
   47.7865,       673,
   47.8067,       678,
   47.8269,       653,
    47.847,       670,
   47.8672,       677,
   47.8874,       698,
   47.9076,       648,
   47.9277,       628,
   47.9479,       669,
   47.9681,       676,
   47.9882,       724,
   48.0084,       657,
   48.0286,       699,
   48.0487,       658,
   48.0689,       662,
   48.0891,       622,
   48.1092,       658,
   48.1294,       621,
   48.1496,       673,
   48.1697,       661,
   48.1899,       660,
   48.2101,       661,
   48.2302,       649,
   48.2504,       678,
   48.2706,       640,
   48.2908,       682,
   48.3109,       640,
   48.3311,       754,
   48.3513,       661,
   48.3714,       680,
   48.3916,       647,
   48.4118,       637,
   48.4319,       662,
   48.4521,       636,
   48.4723,       612,
   48.4924,       642,
   48.5126,       632,
   48.5328,       678,
   48.5529,       660,
   48.5731,       654,
   48.5933,       687,
   48.6134,       606,
   48.6336,       655,
   48.6538,       704,
    48.674,       680,
   48.6941,       701,
   48.7143,       690,
   48.7345,       633,
   48.7546,       752,
   48.7748,       700,
    48.795,       667,
   48.8151,       682,
   48.8353,       695,
   48.8555,       693,
   48.8756,       681,
   48.8958,       717,
    48.916,       709,
   48.9361,       686,
   48.9563,       710,
   48.9765,       651,
   48.9967,       708,
   49.0168,       700,
    49.037,       682,
   49.0572,       701,
   49.0773,       722,
   49.0975,       695,
   49.1177,       646,
   49.1378,       682,
    49.158,       703,
   49.1782,       680,
   49.1983,       656,
   49.2185,       711,
   49.2387,       688,
   49.2588,       659,
    49.279,       711,
   49.2992,       702,
   49.3193,       653,
   49.3395,       673,
   49.3597,       696,
   49.3799,       711,
      49.4,       699,
   49.4202,       659,
   49.4404,       662,
   49.4605,       692,
   49.4807,       669,
   49.5009,       737,
    49.521,       634,
   49.5412,       671,
   49.5614,       685,
   49.5815,       704,
   49.6017,       708,
   49.6219,       688,
    49.642,       669,
   49.6622,       724,
   49.6824,       713,
   49.7025,       679,
   49.7227,       701,
   49.7429,       737,
   49.7631,       696,
   49.7832,       709,
   49.8034,       676,
   49.8236,       657,
   49.8437,       731,
   49.8639,       753,
   49.8841,       736,
   49.9042,       769,
   49.9244,       731,
   49.9446,       737,
   49.9647,       743,
   49.9849,       757,
   50.0051,       795,
   50.0252,       791,
   50.0454,       857,
   50.0656,       872,
   50.0858,       857,
   50.1059,       913,
   50.1261,       900,
   50.1463,       901,
   50.1664,       983,
   50.1866,       990,
   50.2068,      1039,
   50.2269,      1074,
   50.2471,      1131,
   50.2673,      1108,
   50.2874,      1323,
   50.3076,      1504,
   50.3278,      1761,
   50.3479,      2417,
   50.3681,      3355,
   50.3883,      5460,
   50.4084,      9177,
   50.4286,     12970,
   50.4488,     13070,
    50.469,      9412,
   50.4891,      6191,
   50.5093,      4587,
   50.5295,      4828,
   50.5496,      6384,
   50.5698,      7628,
     50.59,      6573,
   50.6101,      4542,
   50.6303,      2928,
   50.6505,      1942,
   50.6706,      1572,
   50.6908,      1366,
    50.711,      1215,
   50.7311,      1074,
   50.7513,      1032,
   50.7715,       981,
   50.7917,       895,
   50.8118,       913,
    50.832,       814,
   50.8522,       835,
   50.8723,       840,
   50.8925,       797,
   50.9127,       721,
   50.9328,       783,
    50.953,       731,
   50.9732,       748,
   50.9933,       758,
   51.0135,       751,
   51.0337,       748,
   51.0538,       707,
    51.074,       716,
   51.0942,       727,
   51.1143,       672,
   51.1345,       697,
   51.1547,       709,
   51.1749,       656,
    51.195,       733,
   51.2152,       694,
   51.2354,       684,
   51.2555,       716,
   51.2757,       688,
   51.2959,       728,
    51.316,       723,
   51.3362,       693,
   51.3564,       743,
   51.3765,       697,
   51.3967,       621,
   51.4169,       715,
    51.437,       674,
   51.4572,       685,
   51.4774,       671,
   51.4975,       654,
   51.5177,       693,
   51.5379,       697,
   51.5581,       678,
   51.5782,       642,
   51.5984,       637,
   51.6186,       660,
   51.6387,       664,
   51.6589,       642,
   51.6791,       668,
   51.6992,       624,
   51.7194,       640,
   51.7396,       650,
   51.7597,       651,
   51.7799,       647,
   51.8001,       657,
   51.8202,       680,
   51.8404,       621,
   51.8606,       675,
   51.8808,       643,
   51.9009,       640,
   51.9211,       657,
   51.9413,       633,
   51.9614,       674,
   51.9816,       660,
   52.0018,       663,
   52.0219,       731,
   52.0421,       665,
   52.0623,       649,
   52.0824,       679,
   52.1026,       605,
   52.1228,       643,
   52.1429,       685,
   52.1631,       642,
   52.1833,       683,
   52.2034,       618,
   52.2236,       653,
   52.2438,       657,
    52.264,       659,
   52.2841,       662,
   52.3043,       693,
   52.3245,       695,
   52.3446,       655,
   52.3648,       636,
    52.385,       639,
   52.4051,       625,
   52.4253,       674,
   52.4455,       642,
   52.4656,       620,
   52.4858,       640,
    52.506,       647,
   52.5261,       644,
   52.5463,       685,
   52.5665,       617,
   52.5866,       632,
   52.6068,       648,
    52.627,       682,
   52.6472,       675,
   52.6673,       710,
   52.6875,       681,
   52.7077,       645,
   52.7278,       626,
    52.748,       669,
   52.7682,       653,
   52.7883,       615,
   52.8085,       656,
   52.8287,       665,
   52.8488,       640,
    52.869,       647,
   52.8892,       643,
   52.9093,       637,
   52.9295,       576,
   52.9497,       647,
   52.9699,       654,
     52.99,       648,
   53.0102,       636,
   53.0304,       647,
   53.0505,       620,
   53.0707,       644,
   53.0909,       671,
    53.111,       615,
   53.1312,       658,
   53.1514,       597,
   53.1715,       608,
   53.1917,       601,
   53.2119,       647,
    53.232,       639,
   53.2522,       664,
   53.2724,       644,
   53.2925,       613,
   53.3127,       631,
   53.3329,       647,
   53.3531,       614,
   53.3732,       645,
   53.3934,       585,
   53.4136,       658,
   53.4337,       658,
   53.4539,       640,
   53.4741,       571,
   53.4942,       623,
   53.5144,       628,
   53.5346,       651,
   53.5547,       640,
   53.5749,       643,
   53.5951,       636,
   53.6152,       627,
   53.6354,       629,
   53.6556,       671,
   53.6757,       679,
   53.6959,       608,
   53.7161,       610,
   53.7363,       612,
   53.7564,       590,
   53.7766,       661,
   53.7968,       629,
   53.8169,       631,
   53.8371,       648,
   53.8573,       686,
   53.8774,       653,
   53.8976,       625,
   53.9178,       599,
   53.9379,       631,
   53.9581,       618,
   53.9783,       576,
   53.9984,       629,
   54.0186,       594,
   54.0388,       609,
    54.059,       641,
   54.0791,       642,
   54.0993,       620,
   54.1195,       635,
   54.1396,       609,
   54.1598,       616,
     54.18,       613,
   54.2001,       612,
   54.2203,       622,
   54.2405,       637,
   54.2606,       667,
   54.2808,       646,
    54.301,       669,
   54.3211,       670,
   54.3413,       619,
   54.3615,       617,
   54.3816,       679,
   54.4018,       628,
    54.422,       634,
   54.4422,       633,
   54.4623,       610,
   54.4825,       656,
   54.5027,       632,
   54.5228,       651,
    54.543,       595,
   54.5632,       623,
   54.5833,       643,
   54.6035,       608,
   54.6237,       634,
   54.6438,       627,
    54.664,       633,
   54.6842,       640,
   54.7043,       614,
   54.7245,       626,
   54.7447,       645,
   54.7648,       568,
    54.785,       705,
   54.8052,       610,
   54.8254,       599,
   54.8455,       663,
   54.8657,       666,
   54.8859,       647,
    54.906,       603,
   54.9262,       607,
   54.9464,       632,
   54.9665,       613,
   54.9867,       635,
   55.0069,       633,
    55.027,       624,
   55.0472,       571,
   55.0674,       586,
   55.0875,       596,
   55.1077,       678,
   55.1279,       656,
   55.1481,       679,
   55.1682,       607,
   55.1884,       639,
   55.2086,       628,
   55.2287,       694,
   55.2489,       654,
   55.2691,       662,
   55.2892,       639,
   55.3094,       617,
   55.3296,       659,
   55.3497,       608,
   55.3699,       654,
   55.3901,       648,
   55.4102,       599,
   55.4304,       624,
   55.4506,       606,
   55.4707,       610,
   55.4909,       650,
   55.5111,       619,
   55.5313,       608,
   55.5514,       622,
   55.5716,       588,
   55.5918,       575,
   55.6119,       637,
   55.6321,       664,
   55.6523,       621,
   55.6724,       659,
   55.6926,       612,
   55.7128,       603,
   55.7329,       562,
   55.7531,       599,
   55.7733,       611,
   55.7934,       641,
   55.8136,       634,
   55.8338,       614,
    55.854,       665,
   55.8741,       626,
   55.8943,       621,
   55.9145,       599,
   55.9346,       609,
   55.9548,       631,
    55.975,       635,
   55.9951,       622,
   56.0153,       609,
   56.0355,       662,
   56.0556,       617,
   56.0758,       612,
    56.096,       632,
   56.1161,       669,
   56.1363,       577,
   56.1565,       634,
   56.1766,       631,
   56.1968,       603,
    56.217,       636,
   56.2372,       619,
   56.2573,       649,
   56.2775,       623,
   56.2977,       635,
   56.3178,       663,
    56.338,       614,
   56.3582,       633,
   56.3783,       622,
   56.3985,       634,
   56.4187,       660,
   56.4388,       598,
    56.459,       618,
   56.4792,       595,
   56.4993,       641,
   56.5195,       593,
   56.5397,       560,
   56.5598,       627,
     56.58,       623,
   56.6002,       593,
   56.6204,       606,
   56.6405,       613,
   56.6607,       631,
   56.6809,       626,
    56.701,       627,
   56.7212,       617,
   56.7414,       610,
   56.7615,       627,
   56.7817,       598,
   56.8019,       614,
    56.822,       600,
   56.8422,       628,
   56.8624,       639,
   56.8825,       621,
   56.9027,       612,
   56.9229,       611,
   56.9431,       607,
   56.9632,       619,
   56.9834,       629,
   57.0036,       617,
   57.0237,       614,
   57.0439,       629,
   57.0641,       643,
   57.0842,       643,
   57.1044,       647,
   57.1246,       630,
   57.1447,       616,
   57.1649,       599,
   57.1851,       598,
   57.2052,       612,
   57.2254,       639,
   57.2456,       568,
   57.2657,       656,
   57.2859,       605,
   57.3061,       607,
   57.3263,       624,
   57.3464,       638,
   57.3666,       634,
   57.3868,       611,
   57.4069,       603,
   57.4271,       646,
   57.4473,       604,
   57.4674,       638,
   57.4876,       628,
   57.5078,       649,
   57.5279,       595,
   57.5481,       599,
   57.5683,       643,
   57.5884,       653,
   57.6086,       681,
   57.6288,       627,
   57.6489,       612,
   57.6691,       576,
   57.6893,       673,
   57.7095,       572,
   57.7296,       585,
   57.7498,       664,
     57.77,       591,
   57.7901,       632,
   57.8103,       581,
   57.8305,       583,
   57.8506,       607,
   57.8708,       607,
    57.891,       627,
   57.9111,       633,
   57.9313,       637,
   57.9515,       650,
   57.9716,       619,
   57.9918,       647,
    58.012,       652,
   58.0322,       607,
   58.0523,       640,
   58.0725,       598,
   58.0927,       662,
   58.1128,       612,
    58.133,       597,
   58.1532,       602,
   58.1733,       585,
   58.1935,       619,
   58.2137,       588,
   58.2338,       611,
    58.254,       627,
   58.2742,       628,
   58.2943,       606,
   58.3145,       619,
   58.3347,       598,
   58.3548,       616,
    58.375,       618,
   58.3952,       593,
   58.4154,       601,
   58.4355,       622,
   58.4557,       570,
   58.4759,       601,
    58.496,       594,
   58.5162,       652,
   58.5364,       611,
   58.5565,       626,
   58.5767,       584,
   58.5969,       626,
    58.617,       615,
   58.6372,       624,
   58.6574,       591,
   58.6775,       590,
   58.6977,       633,
   58.7179,       618,
    58.738,       616,
   58.7582,       657,
   58.7784,       624,
   58.7986,       589,
   58.8187,       618,
   58.8389,       617,
   58.8591,       587,
   58.8792,       639,
   58.8994,       580,
   58.9196,       650,
   58.9397,       604,
   58.9599,       592,
   58.9801,       636,
   59.0002,       613,
   59.0204,       572,
   59.0406,       614,
   59.0607,       644,
   59.0809,       642,
   59.1011,       652,
   59.1213,       616,
   59.1414,       583,
   59.1616,       603,
   59.1818,       578,
   59.2019,       584,
   59.2221,       586,
   59.2423,       613,
   59.2624,       638,
   59.2826,       567,
   59.3028,       631,
   59.3229,       624,
   59.3431,       637,
   59.3633,       627,
   59.3834,       599,
   59.4036,       592,
   59.4238,       622,
   59.4439,       615,
   59.4641,       592,
   59.4843,       641,
   59.5045,       599,
   59.5246,       601,
   59.5448,       570,
    59.565,       610,
   59.5851,       616,
   59.6053,       609,
   59.6255,       601,
   59.6456,       608,
   59.6658,       605,
    59.686,       608,
   59.7061,       588,
   59.7263,       616,
   59.7465,       617,
   59.7666,       627,
   59.7868,       656,
    59.807,       642,
   59.8271,       631,
   59.8473,       616,
   59.8675,       633,
   59.8877,       605,
   59.9078,       651,
    59.928,       633,
   59.9482,       622,
   59.9683,       614,
   59.9885,       640,
   60.0087,       634,
   60.0288,       634,
    60.049,       602,
   60.0692,       618,
   60.0893,       630,
   60.1095,       618,
   60.1297,       638,
   60.1498,       634,
     60.17,       588,
   60.1902,       692,
   60.2104,       629,
   60.2305,       593,
   60.2507,       596,
   60.2709,       606,
    60.291,       567,
   60.3112,       580,
   60.3314,       535,
   60.3515,       620,
   60.3717,       595,
   60.3919,       582,
    60.412,       638,
   60.4322,       639,
   60.4524,       563,
   60.4725,       599,
   60.4927,       616,
   60.5129,       626,
    60.533,       575,
   60.5532,       601,
   60.5734,       610,
   60.5936,       588,
   60.6137,       592,
   60.6339,       624,
   60.6541,       547,
   60.6742,       657,
   60.6944,       611,
   60.7146,       595,
   60.7347,       558,
   60.7549,       614,
   60.7751,       599,
   60.7952,       610,
   60.8154,       589,
   60.8356,       618,
   60.8557,       613,
   60.8759,       608,
   60.8961,       603,
   60.9163,       632,
   60.9364,       600,
   60.9566,       618,
   60.9768,       642,
   60.9969,       602,
   61.0171,       560,
   61.0373,       617,
   61.0574,       613,
   61.0776,       618,
   61.0978,       582,
   61.1179,       640,
   61.1381,       569,
   61.1583,       625,
   61.1784,       609,
   61.1986,       601,
   61.2188,       595,
   61.2389,       622,
   61.2591,       577,
   61.2793,       569,
   61.2995,       593,
   61.3196,       601,
   61.3398,       584,
     61.36,       603,
   61.3801,       581,
   61.4003,       577,
   61.4205,       581,
   61.4406,       614,
   61.4608,       598,
    61.481,       609,
   61.5011,       567,
   61.5213,       574,
   61.5415,       599,
   61.5616,       599,
   61.5818,       655,
    61.602,       608,
   61.6221,       590,
   61.6423,       606,
   61.6625,       618,
   61.6827,       592,
   61.7028,       619,
    61.723,       593,
   61.7432,       587,
   61.7633,       542,
   61.7835,       585,
   61.8037,       600,
   61.8238,       592,
    61.844,       556,
   61.8642,       617,
   61.8843,       636,
   61.9045,       588,
   61.9247,       591,
   61.9448,       617,
    61.965,       600,
   61.9852,       638,
   62.0054,       616,
   62.0255,       608,
   62.0457,       598,
   62.0659,       574,
    62.086,       643,
   62.1062,       593,
   62.1264,       629,
   62.1465,       635,
   62.1667,       617,
   62.1869,       621,
    62.207,       628,
   62.2272,       613,
   62.2474,       569,
   62.2675,       594,
   62.2877,       579,
   62.3079,       595,
    62.328,       594,
   62.3482,       637,
   62.3684,       553,
   62.3886,       652,
   62.4087,       605,
   62.4289,       605,
   62.4491,       589,
   62.4692,       571,
   62.4894,       550,
   62.5096,       612,
   62.5297,       598,
   62.5499,       589,
   62.5701,       587,
   62.5902,       587,
   62.6104,       584,
   62.6306,       597,
   62.6507,       605,
   62.6709,       603,
   62.6911,       616,
   62.7112,       633,
   62.7314,       649,
   62.7516,       636,
   62.7718,       569,
   62.7919,       620,
   62.8121,       612,
   62.8323,       585,
   62.8524,       632,
   62.8726,       593,
   62.8928,       616,
   62.9129,       597,
   62.9331,       612,
   62.9533,       581,
   62.9734,       575,
   62.9936,       635,
   63.0138,       619,
   63.0339,       601,
   63.0541,       610,
   63.0743,       559,
   63.0945,       575,
   63.1146,       597,
   63.1348,       608,
    63.155,       627,
   63.1751,       600,
   63.1953,       599,
   63.2155,       581,
   63.2356,       597,
   63.2558,       587,
    63.276,       590,
   63.2961,       597,
   63.3163,       617,
   63.3365,       597,
   63.3566,       605,
   63.3768,       637,
    63.397,       614,
   63.4171,       609,
   63.4373,       604,
   63.4575,       574,
   63.4777,       600,
   63.4978,       629,
    63.518,       645,
   63.5382,       623,
   63.5583,       600,
   63.5785,       614,
   63.5987,       617,
   63.6188,       613,
    63.639,       647,
   63.6592,       581,
   63.6793,       601,
   63.6995,       554,
   63.7197,       575,
   63.7398,       616,
     63.76,       631,
   63.7802,       633,
   63.8003,       611,
   63.8205,       591,
   63.8407,       632,
   63.8609,       606,
    63.881,       584,
   63.9012,       639,
   63.9214,       614,
   63.9415,       597,
   63.9617,       652,
   63.9819,       595,
    64.002,       628,
   64.0222,       570,
   64.0424,       581,
   64.0625,       641,
   64.0827,       653,
   64.1029,       619,
    64.123,       587,
   64.1432,       589,
   64.1634,       618,
   64.1836,       593,
   64.2037,       598,
   64.2239,       573,
   64.2441,       608,
   64.2642,       534,
   64.2844,       578,
   64.3046,       631,
   64.3247,       585,
   64.3449,       602,
   64.3651,       626,
   64.3852,       625,
   64.4054,       545,
   64.4256,       567,
   64.4457,       627,
   64.4659,       638,
   64.4861,       632,
   64.5062,       613,
   64.5264,       601,
   64.5466,       610,
   64.5668,       584,
   64.5869,       608,
   64.6071,       646,
   64.6273,       604,
   64.6474,       617,
   64.6676,       604,
   64.6878,       589,
   64.7079,       584,
   64.7281,       620,
   64.7483,       592,
   64.7684,       597,
   64.7886,       588,
   64.8088,       557,
   64.8289,       582,
   64.8491,       623,
   64.8693,       578,
   64.8894,       619,
   64.9096,       606,
   64.9298,       625,
     64.95,       567,
   64.9701,       586,
   64.9903,       627,
   65.0105,       632,
   65.0306,       619,
   65.0508,       543,
    65.071,       564,
   65.0911,       619,
   65.1113,       627,
   65.1315,       563,
   65.1516,       587,
   65.1718,       635,
    65.192,       572,
   65.2121,       595,
   65.2323,       608,
   65.2525,       580,
   65.2727,       595,
   65.2928,       588,
    65.313,       594,
   65.3332,       578,
   65.3533,       626,
   65.3735,       564,
   65.3937,       628,
   65.4138,       590,
    65.434,       605,
   65.4542,       580,
   65.4743,       598,
   65.4945,       614,
   65.5147,       567,
   65.5348,       627,
    65.555,       633,
   65.5752,       586,
   65.5953,       579,
   65.6155,       582,
   65.6357,       592,
   65.6559,       588,
    65.676,       599,
   65.6962,       591,
   65.7164,       577,
   65.7365,       588,
   65.7567,       604,
   65.7769,       582,
    65.797,       565,
   65.8172,       567,
   65.8374,       616,
   65.8575,       583,
   65.8777,       602,
   65.8979,       579,
    65.918,       581,
   65.9382,       588,
   65.9584,       603,
   65.9786,       610,
   65.9987,       653,
   66.0189,       634,
   66.0391,       583,
   66.0592,       604,
   66.0794,       638,
   66.0996,       590,
   66.1197,       577,
   66.1399,       585,
   66.1601,       616,
   66.1802,       620,
   66.2004,       623,
   66.2206,       599,
   66.2407,       572,
   66.2609,       625,
   66.2811,       590,
   66.3012,       574,
   66.3214,       565,
   66.3416,       593,
   66.3618,       638,
   66.3819,       646,
   66.4021,       614,
   66.4223,       632,
   66.4424,       592,
   66.4626,       603,
   66.4828,       610,
   66.5029,       585,
   66.5231,       582,
   66.5433,       614,
   66.5634,       587,
   66.5836,       580,
   66.6038,       589,
   66.6239,       617,
   66.6441,       600,
   66.6643,       638,
   66.6844,       570,
   66.7046,       614,
   66.7248,       626,
    66.745,       604,
   66.7651,       585,
   66.7853,       606,
   66.8055,       588,
   66.8256,       602,
   66.8458,       603,
    66.866,       617,
   66.8861,       623,
   66.9063,       588,
   66.9265,       574,
   66.9466,       572,
   66.9668,       630,
    66.987,       587,
   67.0071,       592,
   67.0273,       649,
   67.0475,       598,
   67.0677,       579,
   67.0878,       598,
    67.108,       619,
   67.1282,       603,
   67.1483,       605,
   67.1685,       581,
   67.1887,       639,
   67.2088,       611,
    67.229,       621,
   67.2492,       616,
   67.2693,       581,
   67.2895,       608,
   67.3097,       632,
   67.3298,       563,
     67.35,       629,
   67.3702,       616,
   67.3903,       604,
   67.4105,       558,
   67.4307,       596,
   67.4509,       583,
    67.471,       604,
   67.4912,       593,
   67.5114,       603,
   67.5315,       613,
   67.5517,       607,
   67.5719,       592,
    67.592,       605,
   67.6122,       606,
   67.6324,       600,
   67.6525,       594,
   67.6727,       639,
   67.6929,       553,
    67.713,       608,
   67.7332,       552,
   67.7534,       583,
   67.7735,       586,
   67.7937,       577,
   67.8139,       558,
   67.8341,       661,
   67.8542,       607,
   67.8744,       590,
   67.8946,       650,
   67.9147,       598,
   67.9349,       603,
   67.9551,       639,
   67.9752,       560,
   67.9954,       593,
   68.0156,       617,
   68.0357,       600,
   68.0559,       577,
   68.0761,       627,
   68.0962,       613,
   68.1164,       571,
   68.1366,       562,
   68.1568,       577,
   68.1769,       577,
   68.1971,       598,
   68.2173,       602,
   68.2374,       573,
   68.2576,       614,
   68.2778,       564,
   68.2979,       610,
   68.3181,       632,
   68.3383,       603,
   68.3584,       601,
   68.3786,       625,
   68.3988,       569,
   68.4189,       631,
   68.4391,       580,
   68.4593,       616,
   68.4794,       563,
   68.4996,       607,
   68.5198,       572,
     68.54,       626,
   68.5601,       612,
   68.5803,       629,
   68.6005,       584,
   68.6206,       593,
   68.6408,       595,
    68.661,       616,
   68.6811,       581,
   68.7013,       611,
   68.7215,       602,
   68.7416,       626,
   68.7618,       625,
    68.782,       585,
   68.8021,       570,
   68.8223,       622,
   68.8425,       628,
   68.8626,       572,
   68.8828,       581,
    68.903,       589,
   68.9232,       587,
   68.9433,       590,
   68.9635,       616,
   68.9837,       583,
   69.0038,       601,
    69.024,       606,
   69.0442,       609,
   69.0643,       594,
   69.0845,       609,
   69.1047,       595,
   69.1248,       595,
    69.145,       577,
   69.1652,       586,
   69.1853,       577,
   69.2055,       582,
   69.2257,       610,
   69.2459,       596,
    69.266,       579,
   69.2862,       624,
   69.3064,       578,
   69.3265,       590,
   69.3467,       603,
   69.3669,       571,
    69.387,       581,
   69.4072,       627,
   69.4274,       586,
   69.4475,       573,
   69.4677,       604,
   69.4879,       632,
    69.508,       602,
   69.5282,       640,
   69.5484,       600,
   69.5685,       584,
   69.5887,       614,
   69.6089,       567,
   69.6291,       563,
   69.6492,       604,
   69.6694,       575,
   69.6896,       627,
   69.7097,       601,
   69.7299,       586,
   69.7501,       632,
   69.7702,       586,
   69.7904,       616,
   69.8106,       575,
   69.8307,       595,
   69.8509,       563,
   69.8711,       588,
   69.8912,       550,
   69.9114,       585,
   69.9316,       609,
   69.9517,       580,
   69.9719,       551,
   69.9921,       611,
   70.0123,       589,
   70.0324,       597,
   70.0526,       609,
   70.0728,       585,
   70.0929,       595,
   70.1131,       606,
   70.1333,       588,
   70.1534,       602,
   70.1736,       583,
   70.1938,       615,
   70.2139,       626,
   70.2341,       577,
   70.2543,       591,
   70.2744,       608,
   70.2946,       614,
   70.3148,       609,
    70.335,       630,
   70.3551,       627,
   70.3753,       624,
   70.3955,       588,
   70.4156,       604,
   70.4358,       614,
    70.456,       600,
   70.4761,       582,
   70.4963,       595,
   70.5165,       607,
   70.5366,       614,
   70.5568,       613,
    70.577,       585,
   70.5971,       623,
   70.6173,       600,
   70.6375,       551,
   70.6576,       591,
   70.6778,       595,
    70.698,       577,
   70.7182,       557,
   70.7383,       594,
   70.7585,       557,
   70.7787,       599,
   70.7988,       629,
    70.819,       603,
   70.8392,       583,
   70.8593,       557,
   70.8795,       598,
   70.8997,       551,
   70.9198,       569,
     70.94,       600,
   70.9602,       572,
   70.9803,       641,
   71.0005,       596,
   71.0207,       579,
   71.0409,       551,
    71.061,       601,
   71.0812,       581,
   71.1014,       567,
   71.1215,       593,
   71.1417,       600,
   71.1619,       633,
    71.182,       650,
   71.2022,       633,
   71.2224,       603,
   71.2425,       630,
   71.2627,       638,
   71.2829,       617,
    71.303,       652,
   71.3232,       627,
   71.3434,       612,
   71.3635,       610,
   71.3837,       599,
   71.4039,       630,
   71.4241,       594,
   71.4442,       637,
   71.4644,       609,
   71.4846,       627,
   71.5047,       659,
   71.5249,       606,
   71.5451,       588,
   71.5652,       644,
   71.5854,       643,
   71.6056,       609,
   71.6257,       594,
   71.6459,       644,
   71.6661,       617,
   71.6862,       610,
   71.7064,       621,
   71.7266,       630,
   71.7467,       636,
   71.7669,       633,
   71.7871,       614,
   71.8073,       611,
   71.8274,       634,
   71.8476,       575,
   71.8678,       625,
   71.8879,       564,
   71.9081,       606,
   71.9283,       610,
   71.9484,       572,
   71.9686,       628,
   71.9888,       621,
   72.0089,       611,
   72.0291,       594,
   72.0493,       666,
   72.0694,       667,
   72.0896,       605,
   72.1098,       614,
     72.13,       675,
   72.1501,       656,
   72.1703,       623,
   72.1905,       614,
   72.2106,       623,
   72.2308,       646,
    72.251,       591,
   72.2711,       637,
   72.2913,       582,
   72.3115,       617,
   72.3316,       656,
   72.3518,       597,
    72.372,       600,
   72.3921,       668,
   72.4123,       560,
   72.4325,       590,
   72.4526,       606,
   72.4728,       617,
    72.493,       612,
   72.5132,       628,
   72.5333,       676,
   72.5535,       628,
   72.5737,       606,
   72.5938,       599,
    72.614,       643,
   72.6342,       668,
   72.6543,       623,
   72.6745,       637,
   72.6947,       606,
   72.7148,       627,
    72.735,       588,
   72.7552,       666,
   72.7753,       630,
   72.7955,       627,
   72.8157,       636,
   72.8358,       633,
    72.856,       589,
   72.8762,       592,
   72.8964,       602,
   72.9165,       609,
   72.9367,       609,
   72.9569,       640,
    72.977,       644,
   72.9972,       623,
   73.0174,       635,
   73.0375,       607,
   73.0577,       642,
   73.0779,       610,
    73.098,       608,
   73.1182,       658,
   73.1384,       628,
   73.1585,       607,
   73.1787,       589,
   73.1989,       602,
   73.2191,       659,
   73.2392,       645,
   73.2594,       629,
   73.2796,       632,
   73.2997,       609,
   73.3199,       621,
   73.3401,       638,
   73.3602,       669,
   73.3804,       653,
   73.4006,       637,
   73.4207,       641,
   73.4409,       612,
   73.4611,       629,
   73.4812,       654,
   73.5014,       640,
   73.5216,       664,
   73.5417,       671,
   73.5619,       607,
   73.5821,       665,
   73.6023,       683,
   73.6224,       684,
   73.6426,       701,
   73.6628,       740,
   73.6829,       729,
   73.7031,       782,
   73.7233,       825,
   73.7434,       804,
   73.7636,       853,
   73.7838,       845,
   73.8039,       834,
   73.8241,       863,
   73.8443,       890,
   73.8644,       856,
   73.8846,       929,
   73.9048,       975,
   73.9249,      1031,
   73.9451,      1074,
   73.9653,      1132,
   73.9855,      1368,
   74.0056,      1602,
   74.0258,      2126,
    74.046,      3176,
   74.0661,      5039,
   74.0863,      8467,
   74.1065,     11995,
   74.1266,     12577,
   74.1468,      9382,
    74.167,      5794,
   74.1871,      3654,
   74.2073,      2526,
   74.2275,      2251,
   74.2476,      2185,
   74.2678,      2617,
    74.288,      3664,
   74.3082,      5388,
   74.3283,      6591,
   74.3485,      6196,
   74.3687,      4517,
   74.3888,      2981,
    74.409,      1975,
   74.4292,      1485,
   74.4493,      1201,
   74.4695,      1060,
   74.4897,       956,
   74.5098,       961,
     74.53,       821,
   74.5502,       797,
   74.5703,       829,
   74.5905,       844,
   74.6107,       752,
   74.6308,       744,
    74.651,       742,
   74.6712,       688,
   74.6914,       730,
   74.7115,       734,
   74.7317,       666,
   74.7519,       691,
    74.772,       722,
   74.7922,       699,
   74.8124,       646,
   74.8325,       648,
   74.8527,       677,
   74.8729,       643,
    74.893,       650,
   74.9132,       689,
   74.9334,       648,
   74.9535,       638,
   74.9737,       670,
   74.9939,       638,
    75.014,       688,
   75.0342,       655,
   75.0544,       636,
   75.0746,       620,
   75.0947,       603,
   75.1149,       627,
   75.1351,       607,
   75.1552,       632,
   75.1754,       620,
   75.1956,       640,
   75.2157,       647,
   75.2359,       609,
   75.2561,       630,
   75.2762,       631,
   75.2964,       637,
   75.3166,       617,
   75.3367,       633,
   75.3569,       613,
   75.3771,       616,
   75.3973,       601,
   75.4174,       613,
   75.4376,       634,
   75.4578,       569,
   75.4779,       617,
   75.4981,       616,
   75.5183,       617,
   75.5384,       620,
   75.5586,       622,
   75.5788,       641,
   75.5989,       633,
   75.6191,       633,
   75.6393,       629,
   75.6594,       629,
   75.6796,       562,
   75.6998,       630,
   75.7199,       619,
   75.7401,       621,
   75.7603,       625,
   75.7805,       648,
   75.8006,       624,
   75.8208,       587,
    75.841,       599,
   75.8611,       642,
   75.8813,       630,
   75.9015,       607,
   75.9216,       622,
   75.9418,       613,
    75.962,       638,
   75.9821,       589,
   76.0023,       626,
   76.0225,       614,
   76.0426,       579,
   76.0628,       630,
    76.083,       630,
   76.1032,       634,
   76.1233,       578,
   76.1435,       604,
   76.1637,       640,
   76.1838,       605,
    76.204,       605,
   76.2242,       684,
   76.2443,       644,
   76.2645,       611,
   76.2847,       638,
   76.3048,       614,
    76.325,       644,
   76.3452,       596,
   76.3653,       592,
   76.3855,       622,
   76.4057,       645,
   76.4258,       588,
    76.446,       593,
   76.4662,       641,
   76.4864,       625,
   76.5065,       630,
   76.5267,       606,
   76.5469,       632,
    76.567,       600,
   76.5872,       598,
   76.6074,       615,
   76.6275,       614,
   76.6477,       569,
   76.6679,       601,
    76.688,       630,
   76.7082,       655,
   76.7284,       547,
   76.7485,       593,
   76.7687,       582,
   76.7889,       620,
    76.809,       575,
   76.8292,       607,
   76.8494,       600,
   76.8696,       581,
   76.8897,       606,
   76.9099,       594,
   76.9301,       609,
   76.9502,       611,
   76.9704,       611,
   76.9906,       598,
   77.0107,       594,
   77.0309,       627,
   77.0511,       610,
   77.0712,       630,
   77.0914,       610,
   77.1116,       560,
   77.1317,       581,
   77.1519,       594,
   77.1721,       626,
   77.1923,       611,
   77.2124,       592,
   77.2326,       532,
   77.2528,       665,
   77.2729,       609,
   77.2931,       610,
   77.3133,       633,
   77.3334,       631,
   77.3536,       590,
   77.3738,       644,
   77.3939,       569,
   77.4141,       617,
   77.4343,       586,
   77.4544,       618,
   77.4746,       540,
   77.4948,       575,
   77.5149,       618,
   77.5351,       601,
   77.5553,       573,
   77.5755,       626,
   77.5956,       590,
   77.6158,       603,
    77.636,       599,
   77.6561,       599,
   77.6763,       572,
   77.6965,       611,
   77.7166,       643,
   77.7368,       615,
    77.757,       613,
   77.7771,       633,
   77.7973,       590,
   77.8175,       601,
   77.8376,       647,
   77.8578,       627,
    77.878,       585,
   77.8981,       616,
   77.9183,       628,
   77.9385,       572,
   77.9587,       560,
   77.9788,       607,
    77.999,       596,
