;RAW4.00
[RawHeader]
Date=11/26/2025
EstimatedTotalTime=426.6
FurtherDQLReading=0
HardwareIndicator=65519
MeasuredTotalTime=4.29473
MeasurementFlag=1
NumberOfMeasuredRanges=1
NumberOfRanges=1
Time=09:59:19

[VarInfo]
Type=USER
Flags=0
Value=Lab Manager

[VarInfo]
Type=SAMPLEID
Flags=0
Value=Commander Sample ID

[VarInfo]
Type=COMMENT
Flags=0
Value=

[VarInfo]
Type=UTF
Flags=0
Value=

[VarInfo]
Type=CREATOR
Flags=0
Value=V5Converter

[VarInfo]
Type=CREATOR_VERSION
Flags=0
Value=4.4.16.0

[HardwareConfiguration]
AbsorptionFactor=9999
ActivateAbsorber=0
Alpha1=1.5406
Alpha2=1.54439
AlphaAverage=1.54184
AlphaRatio=0.5
Analyzer=0
Anode=Cu
AntiScatteringSlit=9999
BeamOpticsFlags=0
Beta=1.39222
BetaRelativeIntensity=0
DeactivateAbsorber=0
DetectorSlit=9999
DivergenceSlit=9999
GoniometerControl=0
GoniometerDiameter=282
GoniometerModel=256
GoniometerStage=7
Monochromator=0
NearSampleSlit=9999
PrimarySollerSlit=9999
SampleChanger=0
SecondSollerSlit=9999
SynchronousAxis=0
ThinFilmAttachment=9999
WaveUnit=A

[RangeHeader]
ActuallyUsedLambda=1.54184
AdditionalDetectorMask=257
DataRecordLength=4
DelayTime=0
DisplayPlaneNumber=0
EstimatedScanTime=427
ExtraParametersMask=0
GeneratorCurrent=10
GeneratorVoltage=30
Increment=0.0201685
Increment3=0
NumberOfCompletedData=1885
NumberOfCounts=1
NumberOfDetectors=0
NumberOfDrives=3
NumberOfEncoderDrives=0
NumberOfMeasuredData=1885
NumberOfVaryingParameters=0
RangeStartTime=0
RotationSpeed=0
ScanMode=1
ScanType=Locked Coupled
SimulatedMeasConditions=0
SlitChangerIn=0
SmootingWidth=0
Start=40.0015
Steps=1885
SynchronousRotation=0
Time=33

[VarInfo]
Type=PSD_DISCRIM
Flags=0
Value=0.11;0.5

[VarInfo]
Type=OPTICS_V5
Flags=0
Value=H4sIAAAAAAAEAO1d63KjOhJ+Fda/zqmtBIPtXKaITzm2J+OaOHbFTnKmtrZcBORYZzC4AOey//d99hl2X2x1QViIS8C3JBN+TCaodWm6+2vUUkfS/nieW9IjcD3o2GcV5bBakYBtOCa0H84qS396oBxV/mhqF44NnTnwgdt25gvHBrbf0X1dQq1t78uzB88qM99ffJHlp6enw6faoeM+yGq1qsh/9i9HxgzM9QNoe75uG6AStjJfb1WRbqEH7y1wpc/BWWXFR0joAM9w4cInL/Bj4UHLsSW+3oXrLBc9NBZ6t3Pgojcb3P8FDH+o+7OzitwBj9AAMt+CrxUfl1Lblu55QRehTORzoM8XqLDt2L4ObeBy/coBc6yHluEvdYtxoR6o1ePT02O5h8TkLue4tzhrTW2EZGjqqBswQr3oFvyXjl+9OdUtD2hyGln7c259hcAyrwHqHhq4EDFpA/KbJ8lNjfKD1ToCFipvdm00JDA1OUbR6Btwou9Ab2HpL824AjQ5tXK8m+bF4OrHhPzodEft64TGrBVWDOsoPhpP1bBWhrxWvISy1r0hIUP+4r8skMLHrm78xG8sGODQhXPdfSHkZBMMakgD9GxISBvSeHkPOIFIQeOidilHx44baRI9r5mSRmyEDSxUYBJZ3blu/xy4JnCvAfYzAL0wsdX3b8s5NVnMwIfj6+8T9KPV/l7IxHm5Jhp5z0OvBh9BE+kGCS98DAk920dCZMIVSikeHA9SJulgmhwp1bAq2ZMXfZT4B2LSAxc+QFu3ogSlwl6OWi7Ssb/0moPwnSLFGmsYPPedJdIj0qJQrgWE0MJ5JCOdEXICmjFtjmnJUA7J0tRxpRHQLUBtYA3AytxYcejGiMm4JZa46kmmLG0LrhEWBa3xcus++8A2MZDfDYZpCWdMkQKtj5nwHfcltGVFk+OFGseMJxH2qHoYWND7cnJosmJN5ku1uCnh1+H65qyTKx3Y545jAR1NEG5s6BPpdiDSG56bXcI59IlYwiKvWdVk7knrgKm+tPxb3VoCboigVyQ96CPXTshnFewlKri/oQta5l9LD8GnYEuZYx67mbHTJoqe6ZblPK0cjVCOarZnwPgJzFUVVqC1ESPOHKsWvx33pNH5Zl7erhEyxkg2xVq1lr7TdoHug6HrLIDrvzAWEyiR9/eIRfdMhLKr5fweuE21rslCEdaQRS08UPF//xMyUSUc9B0TNG8Quqbos4xMnTwz90Y+PzEHluy7tuWt5HgP/ND5vNXOHBXjLvaN2aNbYuh5A79Evm3IJvErCL6JJ23LP418rD3OPSHRTOHDEjnla/gw85sIdabECnU0BoKwUKWYS+vrz5fAfvBnTbXRwKJhj2nOjrJISkNktZevObqMVm/q5DL4SnFwGS02cm5pFninPwKqkpa1mOmKYIUieVuWOJh2nCVqyWzxf//ehzWm2Nxw9uJBQ7dIeQJnTA/KYaNePXrNFtfo7ca2MPfItOjcf/WMZelYS+paugfVBtErK9H60Ibz5bx5oBwenx4fndaUWv3kSK0pjePu32vVE4S4oAZGIvklvWZQ4W0Rs4b0UpC0Rk/7QJiajTD10yOsXjvdJsRYdyXGNhLfFkDGuto1yh6Bqz+IoV6M/ulxppzUt4kz1l2Js43EtwWcsa52jLNz4OupIMPET46w2qmqqttD2Kq7EmEbiW9jhK262jHCrvGaRirECHVXGHuvCFutth02NsJWrKMSVWsKbh08xTrZCZK+OsbSG7gQ2D5ZHRSgJJK3tspG1g4H057tH9XfH6CibEVXr/OjKbkXhfRCBYDfqOeDOWLs0nmABl3VvJn0rm5bl73OpP2tN9TkFYkJfAye/WbPftQtiMQzg4uVjCJaIvW07+CFjI1lEf6uyTEWsnm67F2lsnIJbSARW0kbWtlk6OEgY+yhA20/e3B1k8GZLoaD0auqCHeKD6S58wgk35HmwJjpNrYKCTmTxd/SeKxl8/ienF2WXefzdFk9bOTm6N5Lz546UqiqhAVciZbr3FOQY3BWIVUkVBrdJr+ZtC6H31rRcrGRhEeyyEjkXXKxo0bYURPZUVPYUbPYUQuzEywL8PxEyoQBQloib5PW7UUWe0HrokySmCrg8D78PeybkkWGzrvjVjIvuH4+FiIbUQEDqBXeyxN46LJSkY3uZbffvRqnSMV2TCAFbaXVSDlkQmfBvNq4EkHsASVZZdetcW+QpTTSOp+8YlOLgL9pYnk4ToQicvl10J4MrpMZJONJkeZyfMe6Ed+xvgA2skTfcYU8TFacvPmcsQFLZ8dr7r82tXQiP3O7dSw/voYXlO4q5vl5u6WEjcypLxqFfRNqVSHyCL4FKaFHctihVBMCjFp1f7FErbF+MBEXRsEvZLo55TW19tJ1sT+LmlpQuitTm7f2YWpolHD6sQ1TaySFsh/E0uKy2LulDZ0nkgHOmxQp25WV3aUEnW+xcHMnRJr5lluqhymm+EkWW+4491hde7Ul3ssWbV9+7YtfJA0UTQyNGXBfyVbbPA8ud74bklUw60j9YgWfilQ/I4dzraYmBmuZ2QhiKJW9qxqLdLI3h6IxR/YytzAXT1vD42MIIXVJnC4nR8cylyaJ7OZRhxZeJcCPHu2eWH2ZQFkmUJYJlGUCZZlA+fE2xcsEyvezJV4mUP6aCCsTKN8TxsoEyl8VZ2UC5XvCWZlA+ashrEygfE8IKxMoywTKMoGyTKAsEyjLBMoygbJMoCwTKMsEyjKBskygLBMoywTKMoGyTKAsEyjLBMoygbJMoHzr+KNMoCwTKD9tAiXLkUS/iumT7KzT+Cmg4tm7GScqd+cL/4UkG4arGcVOT+72h4PRhP4scnoyGTg0xcTzk2U+BzLzcGMl7XBjde+HGw8WbefceR5MR45lATfhiGNKyDjkmKsg/WbotmTQQ8ElNJZEifQE7N/XgX9k+LhXSSBnuYaE6hunwkb7FPSZfOxxRGTIPPKL8PePe2KymphYK0bAR+scevtxXAin6Q2diJrmRGpv50S+wmdgEkNlcw/RmVjQz3IliCz1U2CAaRv4kdXICV5EJGb6ELHy5h6E61FQZYr/YA2o98gntQ/sOmq5XMfxeudlE7OmVzSsTJpYMhZe0hcRy1SR/jGf/zPDjH/DR/7fA2QfErQ9hAVgol98R9I5hWWaMq5mhBds4KeJUp0oaQYcIb5mwIVtN52ZmPP5qH/5US30lx930PRnYm4HLtvZktP8/WxBxzgL44DNsuvjPeVdZqh+7nWGuODWWWeI97KTtI5vABumgB1a+LnBszXslNBZz+i3gpzt3wSirjOzGenzhQXuZgBYY/QC/KUgIkkjH65UJ0ChmfamMj+F+lCxGJtFbxiJ1dIisfpGkRjhMR6HvT9h3thLD5hkeHHgLInKwm1g17oJl16CldWVYB+fXrg3mE494KdZfesZevz3Iay2B1ceYybnbh1ywVU1LSlVPTypn6qNRkNN8LvHjcOTRv24dqQqvK8VhNAM7mETbitc+w7DEUCRgJl9i2FYh7v9roNCXwNnMmzhLkORh4SYKLFGsfsMwz42ifVFRj70nYaF9FrM/4zwzYaj4jcbRuW787sNw+F2cbvhyRss3uHlOks3wMyxzMQtgMsX+xm8pBxzcfnj6s/ujy654bCjSsOZ7olX4OYEsRyOEwezQMpa3mDWKOO8X3k4Wj2jProvYAvX6KYzLmrzl7v28CTPUlxNiU9Yi8wL0ecUu0XdWrmWfniNJk2pxn6HJHazGl4xZ9PpjyfkXwFHw4ba6R6gstmscZebgP09bgIKCIswkLYN2N/zNmAmj6JSs3YC+59rJ1Cp53Ii1c+wFVhGSkUjpbRAqXF4dHrSUJRqPWmBqqEcHldP68dqfQeB0sontAHGieA9hcKI4+SmzLSadMAw70kjnLfkkW8dVkPLMIDnOS4E3hoRE+Mi7j2jlLwRUvyl1/ekrIcPHRqtqcpiLudicNWekB9FHA7lZ+eh0Ri4qHQnkdHp3mdFwxkkShPAfO0EGXBRYgTUqKlErdE1Wb0CGJXZGHSdNqGDKCsJ1TJnP6vqMuJUZpxuDuAUxgVFpsREEgUYMFu+rxszPNBZ5WDPRwluc5pzmitr4SQ+y+l5TBQhKMMCjfMcZLfIWj48ALPjYkzSv8ZE3eHvWs9sIu2S3oNHTCEVRwtgwGnwt6KsUpyC4BLvvcgEK46DYs5u+K03mpAfRZxdFKHbnGBVi0yvQisOP5lEYfRDEPwf22IqXU7pckqXI7qcECvsd+8VLsZPznhGTjB6jZVIzZz8ZA+dc9yig6ZEJvFifFQxXo8YAd9H0PIkfi6GHAXNPKxILbzB7vVR6AbplI5NtLGOuVT/5i2e1Rn4EFu+VFtBkewhB6uqmiyUa3yqI/WAkWUTj/6JxSqYYK6D6Pv/u9RXv2COAAA=

[PSD]
ActualTwoTheta=9999
FirstUsedChannel=0
FixedPSD=0
PSDOpening=4.99171
PSDType=5

[Drive]
DriveFlags=1
DriveName=2Theta
DriveNumber=2
DriveOffset=0
OffsetIndex=0
OscillationAmplitude=0
OscillationSpeed=0
StartPosition=40.0015

[Drive]
DriveFlags=1
DriveName=Theta
DriveNumber=1
DriveOffset=0
OffsetIndex=0
OscillationAmplitude=0
OscillationSpeed=0
StartPosition=20.0007

[Drive]
DriveFlags=1
DriveName=Phi
DriveNumber=3
DriveOffset=0
OffsetIndex=0
OscillationAmplitude=0
OscillationSpeed=0
StartPosition=0

[Data]
     Angle,       PSD,
   40.0015,       610,
   40.0217,       612,
   40.0418,       617,
    40.062,       600,
   40.0822,       622,
   40.1023,       628,
   40.1225,       619,
   40.1427,       609,
   40.1628,       592,
    40.183,       664,
   40.2032,       619,
   40.2233,       694,
   40.2435,       634,
   40.2637,       619,
   40.2838,       629,
    40.304,       616,
   40.3242,       599,
   40.3444,       648,
   40.3645,       586,
   40.3847,       607,
   40.4049,       599,
    40.425,       567,
   40.4452,       655,
   40.4654,       585,
   40.4855,       600,
   40.5057,       600,
   40.5259,       645,
    40.546,       605,
   40.5662,       626,
   40.5864,       638,
   40.6065,       613,
   40.6267,       606,
   40.6469,       608,
   40.6671,       614,
   40.6872,       635,
   40.7074,       640,
   40.7276,       616,
   40.7477,       611,
   40.7679,       631,
   40.7881,       601,
   40.8082,       635,
   40.8284,       592,
   40.8486,       619,
   40.8687,       628,
   40.8889,       637,
   40.9091,       580,
   40.9292,       643,
   40.9494,       573,
   40.9696,       626,
   40.9897,       643,
   41.0099,       649,
   41.0301,       603,
   41.0503,       578,
   41.0704,       624,
   41.0906,       654,
   41.1108,       614,
   41.1309,       630,
   41.1511,       630,
   41.1713,       632,
   41.1914,       640,
   41.2116,       628,
   41.2318,       605,
   41.2519,       671,
   41.2721,       534,
   41.2923,       630,
   41.3124,       623,
   41.3326,       625,
   41.3528,       621,
   41.3729,       608,
   41.3931,       582,
   41.4133,       636,
   41.4335,       590,
   41.4536,       619,
   41.4738,       627,
    41.494,       602,
   41.5141,       586,
   41.5343,       620,
   41.5545,       626,
   41.5746,       639,
   41.5948,       625,
    41.615,       615,
   41.6351,       662,
   41.6553,       618,
   41.6755,       604,
   41.6956,       633,
   41.7158,       600,
    41.736,       640,
   41.7562,       570,
   41.7763,       621,
   41.7965,       617,
   41.8167,       634,
   41.8368,       680,
    41.857,       607,
   41.8772,       642,
   41.8973,       637,
   41.9175,       626,
   41.9377,       671,
   41.9578,       670,
    41.978,       700,
   41.9982,       682,
   42.0183,       831,
   42.0385,       702,
   42.0587,       799,
   42.0788,       670,
    42.099,       728,
   42.1192,       692,
   42.1394,       716,
   42.1595,       720,
   42.1797,       662,
   42.1999,       765,
     42.22,       746,
   42.2402,       727,
   42.2604,       742,
   42.2805,       733,
   42.3007,       747,
   42.3209,       739,
    42.341,       745,
   42.3612,       728,
   42.3814,       698,
   42.4015,       751,
   42.4217,       741,
   42.4419,       772,
    42.462,       757,
   42.4822,       688,
   42.5024,       727,
   42.5226,       770,
   42.5427,       737,
   42.5629,       734,
   42.5831,       739,
   42.6032,       728,
   42.6234,       746,
   42.6436,       747,
   42.6637,       795,
   42.6839,       756,
   42.7041,       736,
   42.7242,       776,
   42.7444,       797,
   42.7646,       773,
   42.7847,       710,
   42.8049,       751,
   42.8251,       785,
   42.8453,       809,
   42.8654,       785,
   42.8856,       824,
   42.9058,       798,
   42.9259,       780,
   42.9461,       760,
   42.9663,       811,
   42.9864,       835,
   43.0066,       920,
   43.0268,       914,
   43.0469,       954,
   43.0671,       959,
   43.0873,       988,
   43.1074,       990,
   43.1276,      1109,
   43.1478,      1187,
   43.1679,      1145,
   43.1881,      1252,
   43.2083,      1216,
   43.2285,      1337,
   43.2486,      1539,
   43.2688,      1610,
    43.289,      1772,
   43.3091,      1953,
   43.3293,      2069,
   43.3495,      2178,
   43.3696,      2281,
   43.3898,      2687,
     43.41,      3726,
   43.4301,      5664,
   43.4503,     10991,
   43.4705,     24153,
   43.4906,     43770,
   43.5108,     50143,
    43.531,     35508,
   43.5511,     18662,
   43.5713,     13609,
   43.5915,     18942,
   43.6117,     26258,
   43.6318,     24108,
    43.652,     14665,
   43.6722,      7210,
   43.6923,      3810,
   43.7125,      2830,
   43.7327,      2298,
   43.7528,      2018,
    43.773,      1809,
   43.7932,      1622,
   43.8133,      1567,
   43.8335,      1414,
   43.8537,      1336,
   43.8738,      1198,
    43.894,      1167,
   43.9142,      1147,
   43.9344,      1040,
   43.9545,       983,
   43.9747,       908,
   43.9949,       910,
    44.015,       838,
   44.0352,       891,
   44.0554,       851,
   44.0755,       846,
   44.0957,       840,
   44.1159,       828,
    44.136,       824,
   44.1562,       853,
   44.1764,       829,
   44.1965,       813,
   44.2167,       796,
   44.2369,       791,
    44.257,       802,
   44.2772,       790,
   44.2974,       820,
   44.3176,       762,
   44.3377,       763,
   44.3579,       778,
   44.3781,       704,
   44.3982,       796,
   44.4184,       761,
   44.4386,       752,
   44.4587,       747,
   44.4789,       742,
   44.4991,       709,
   44.5192,       742,
   44.5394,       713,
   44.5596,       723,
   44.5797,       710,
   44.5999,       723,
   44.6201,       731,
   44.6402,       701,
   44.6604,       715,
   44.6806,       703,
   44.7008,       704,
   44.7209,       728,
   44.7411,       701,
   44.7613,       756,
   44.7814,       748,
   44.8016,       721,
   44.8218,       709,
   44.8419,       680,
   44.8621,       660,
   44.8823,       703,
   44.9024,       690,
   44.9226,       694,
   44.9428,       712,
   44.9629,       740,
   44.9831,       710,
   45.0033,       726,
   45.0235,       710,
   45.0436,       660,
   45.0638,       676,
    45.084,       727,
   45.1041,       703,
   45.1243,       727,
   45.1445,       760,
   45.1646,       662,
   45.1848,       715,
    45.205,       666,
   45.2251,       722,
   45.2453,       690,
   45.2655,       662,
   45.2856,       713,
   45.3058,       707,
    45.326,       650,
   45.3461,       663,
   45.3663,       706,
   45.3865,       703,
   45.4067,       713,
   45.4268,       646,
    45.447,       750,
   45.4672,       743,
   45.4873,       716,
   45.5075,       717,
   45.5277,       673,
   45.5478,       670,
    45.568,       680,
   45.5882,       664,
   45.6083,       709,
   45.6285,       670,
   45.6487,       670,
   45.6688,       684,
    45.689,       696,
   45.7092,       651,
   45.7294,       643,
   45.7495,       666,
   45.7697,       668,
   45.7899,       717,
     45.81,       681,
   45.8302,       681,
   45.8504,       691,
   45.8705,       715,
   45.8907,       669,
   45.9109,       658,
    45.931,       701,
   45.9512,       696,
   45.9714,       682,
   45.9915,       653,
   46.0117,       681,
   46.0319,       637,
    46.052,       651,
   46.0722,       701,
   46.0924,       613,
   46.1126,       634,
   46.1327,       648,
   46.1529,       681,
   46.1731,       664,
   46.1932,       628,
   46.2134,       639,
   46.2336,       661,
   46.2537,       681,
   46.2739,       694,
   46.2941,       706,
   46.3142,       653,
   46.3344,       628,
   46.3546,       675,
   46.3747,       685,
   46.3949,       608,
   46.4151,       700,
   46.4352,       650,
   46.4554,       668,
   46.4756,       619,
   46.4958,       650,
   46.5159,       631,
   46.5361,       636,
   46.5563,       649,
   46.5764,       645,
   46.5966,       679,
   46.6168,       658,
   46.6369,       688,
   46.6571,       651,
   46.6773,       675,
   46.6974,       679,
   46.7176,       669,
   46.7378,       640,
   46.7579,       707,
   46.7781,       668,
   46.7983,       626,
   46.8185,       628,
   46.8386,       637,
   46.8588,       663,
    46.879,       676,
   46.8991,       667,
   46.9193,       640,
   46.9395,       672,
   46.9596,       690,
   46.9798,       637,
        47,       680,
   47.0201,       668,
   47.0403,       620,
   47.0605,       674,
   47.0806,       639,
   47.1008,       692,
    47.121,       665,
   47.1411,       638,
   47.1613,       700,
   47.1815,       623,
   47.2017,       613,
   47.2218,       727,
    47.242,       679,
   47.2622,       607,
   47.2823,       603,
   47.3025,       670,
   47.3227,       669,
   47.3428,       656,
    47.363,       669,
   47.3832,       650,
   47.4033,       646,
   47.4235,       655,
   47.4437,       654,
   47.4638,       679,
    47.484,       685,
   47.5042,       659,
   47.5243,       619,
   47.5445,       682,
   47.5647,       673,
   47.5849,       622,
    47.605,       681,
   47.6252,       640,
   47.6454,       644,
   47.6655,       649,
   47.6857,       652,
   47.7059,       703,
    47.726,       683,
   47.7462,       657,
   47.7664,       654,
   47.7865,       598,
   47.8067,       633,
   47.8269,       666,
    47.847,       679,
   47.8672,       637,
   47.8874,       686,
   47.9076,       642,
   47.9277,       653,
   47.9479,       652,
   47.9681,       684,
   47.9882,       653,
   48.0084,       615,
   48.0286,       673,
   48.0487,       659,
   48.0689,       673,
   48.0891,       662,
   48.1092,       620,
   48.1294,       685,
   48.1496,       630,
   48.1697,       656,
   48.1899,       618,
   48.2101,       714,
   48.2302,       615,
   48.2504,       620,
   48.2706,       654,
   48.2908,       628,
   48.3109,       639,
   48.3311,       617,
   48.3513,       618,
   48.3714,       661,
   48.3916,       664,
   48.4118,       661,
   48.4319,       656,
   48.4521,       648,
   48.4723,       649,
   48.4924,       643,
   48.5126,       598,
   48.5328,       634,
   48.5529,       653,
   48.5731,       659,
   48.5933,       639,
   48.6134,       667,
   48.6336,       668,
   48.6538,       661,
    48.674,       646,
   48.6941,       629,
   48.7143,       622,
   48.7345,       674,
   48.7546,       611,
   48.7748,       663,
    48.795,       657,
   48.8151,       659,
   48.8353,       694,
   48.8555,       659,
   48.8756,       683,
   48.8958,       692,
    48.916,       665,
   48.9361,       648,
   48.9563,       674,
   48.9765,       659,
   48.9967,       649,
   49.0168,       637,
    49.037,       653,
   49.0572,       682,
   49.0773,       684,
   49.0975,       705,
   49.1177,       649,
   49.1378,       673,
    49.158,       668,
   49.1782,       654,
   49.1983,       632,
   49.2185,       674,
   49.2387,       666,
   49.2588,       641,
    49.279,       667,
   49.2992,       660,
   49.3193,       639,
   49.3395,       718,
   49.3597,       674,
   49.3799,       669,
      49.4,       737,
   49.4202,       686,
   49.4404,       691,
   49.4605,       665,
   49.4807,       636,
   49.5009,       708,
    49.521,       681,
   49.5412,       699,
   49.5614,       694,
   49.5815,       670,
   49.6017,       636,
   49.6219,       649,
    49.642,       682,
   49.6622,       671,
   49.6824,       657,
   49.7025,       687,
   49.7227,       735,
   49.7429,       690,
   49.7631,       646,
   49.7832,       676,
   49.8034,       679,
   49.8236,       664,
   49.8437,       645,
   49.8639,       686,
   49.8841,       674,
   49.9042,       689,
   49.9244,       704,
   49.9446,       691,
   49.9647,       696,
   49.9849,       703,
   50.0051,       712,
   50.0252,       671,
   50.0454,       689,
   50.0656,       701,
   50.0858,       741,
   50.1059,       718,
   50.1261,       739,
   50.1463,       743,
   50.1664,       781,
   50.1866,       783,
   50.2068,       823,
   50.2269,       799,
   50.2471,       798,
   50.2673,       846,
   50.2874,       835,
   50.3076,       918,
   50.3278,       924,
   50.3479,       916,
   50.3681,       960,
   50.3883,      1057,
   50.4084,      1107,
   50.4286,      1124,
   50.4488,      1148,
    50.469,      1221,
   50.4891,      1478,
   50.5093,      1629,
   50.5295,      1872,
   50.5496,      2679,
   50.5698,      4025,
     50.59,      6393,
   50.6101,      9579,
   50.6303,     11903,
   50.6505,     10750,
   50.6706,      7724,
   50.6908,      5387,
    50.711,      4522,
   50.7311,      5120,
   50.7513,      6294,
   50.7715,      6419,
   50.7917,      5648,
   50.8118,      3843,
    50.832,      2474,
   50.8522,      1826,
   50.8723,      1400,
   50.8925,      1297,
   50.9127,      1186,
   50.9328,      1039,
    50.953,       988,
   50.9732,       943,
   50.9933,       907,
   51.0135,       876,
   51.0337,       828,
   51.0538,       785,
    51.074,       812,
   51.0942,       794,
   51.1143,       805,
   51.1345,       752,
   51.1547,       765,
   51.1749,       760,
    51.195,       718,
   51.2152,       703,
   51.2354,       707,
   51.2555,       684,
   51.2757,       680,
   51.2959,       739,
    51.316,       684,
   51.3362,       635,
   51.3564,       706,
   51.3765,       687,
   51.3967,       687,
   51.4169,       683,
    51.437,       641,
   51.4572,       656,
   51.4774,       658,
   51.4975,       662,
   51.5177,       672,
   51.5379,       676,
   51.5581,       644,
   51.5782,       673,
   51.5984,       663,
   51.6186,       652,
   51.6387,       672,
   51.6589,       662,
   51.6791,       688,
   51.6992,       644,
   51.7194,       654,
   51.7396,       587,
   51.7597,       685,
   51.7799,       663,
   51.8001,       631,
   51.8202,       706,
   51.8404,       634,
   51.8606,       631,
   51.8808,       647,
   51.9009,       665,
   51.9211,       635,
   51.9413,       664,
   51.9614,       661,
   51.9816,       669,
   52.0018,       630,
   52.0219,       662,
   52.0421,       588,
   52.0623,       650,
   52.0824,       661,
   52.1026,       673,
   52.1228,       679,
   52.1429,       659,
   52.1631,       639,
   52.1833,       629,
   52.2034,       647,
   52.2236,       686,
   52.2438,       640,
    52.264,       614,
   52.2841,       676,
   52.3043,       664,
   52.3245,       584,
   52.3446,       593,
   52.3648,       717,
    52.385,       647,
   52.4051,       651,
   52.4253,       583,
   52.4455,       624,
   52.4656,       637,
   52.4858,       574,
    52.506,       623,
   52.5261,       590,
   52.5463,       647,
   52.5665,       670,
   52.5866,       622,
   52.6068,       636,
    52.627,       644,
   52.6472,       646,
   52.6673,       659,
   52.6875,       666,
   52.7077,       598,
   52.7278,       639,
    52.748,       646,
   52.7682,       652,
   52.7883,       644,
   52.8085,       618,
   52.8287,       610,
   52.8488,       671,
    52.869,       646,
   52.8892,       638,
   52.9093,       640,
   52.9295,       671,
   52.9497,       659,
   52.9699,       596,
     52.99,       631,
   53.0102,       650,
   53.0304,       644,
   53.0505,       617,
   53.0707,       633,
   53.0909,       625,
    53.111,       619,
   53.1312,       635,
   53.1514,       629,
   53.1715,       587,
   53.1917,       615,
   53.2119,       652,
    53.232,       631,
   53.2522,       631,
   53.2724,       605,
   53.2925,       613,
   53.3127,       626,
   53.3329,       645,
   53.3531,       597,
   53.3732,       610,
   53.3934,       620,
   53.4136,       614,
   53.4337,       635,
   53.4539,       655,
   53.4741,       635,
   53.4942,       644,
   53.5144,       644,
   53.5346,       646,
   53.5547,       654,
   53.5749,       615,
   53.5951,       618,
   53.6152,       613,
   53.6354,       604,
   53.6556,       612,
   53.6757,       659,
   53.6959,       638,
   53.7161,       638,
   53.7363,       614,
   53.7564,       618,
   53.7766,       653,
   53.7968,       597,
   53.8169,       625,
   53.8371,       612,
   53.8573,       631,
   53.8774,       618,
   53.8976,       604,
   53.9178,       632,
   53.9379,       640,
   53.9581,       618,
   53.9783,       626,
   53.9984,       633,
   54.0186,       669,
   54.0388,       659,
    54.059,       656,
   54.0791,       632,
   54.0993,       684,
   54.1195,       635,
   54.1396,       605,
   54.1598,       624,
     54.18,       628,
   54.2001,       660,
   54.2203,       634,
   54.2405,       650,
   54.2606,       629,
   54.2808,       626,
    54.301,       593,
   54.3211,       607,
   54.3413,       621,
   54.3615,       648,
   54.3816,       591,
   54.4018,       635,
    54.422,       631,
   54.4422,       591,
   54.4623,       573,
   54.4825,       575,
   54.5027,       634,
   54.5228,       593,
    54.543,       623,
   54.5632,       604,
   54.5833,       609,
   54.6035,       623,
   54.6237,       609,
   54.6438,       616,
    54.664,       680,
   54.6842,       623,
   54.7043,       613,
   54.7245,       636,
   54.7447,       634,
   54.7648,       585,
    54.785,       604,
   54.8052,       598,
   54.8254,       623,
   54.8455,       597,
   54.8657,       633,
   54.8859,       632,
    54.906,       582,
   54.9262,       582,
   54.9464,       592,
   54.9665,       637,
   54.9867,       611,
   55.0069,       618,
    55.027,       635,
   55.0472,       601,
   55.0674,       635,
   55.0875,       610,
   55.1077,       602,
   55.1279,       657,
   55.1481,       571,
   55.1682,       617,
   55.1884,       602,
   55.2086,       675,
   55.2287,       627,
   55.2489,       668,
   55.2691,       591,
   55.2892,       628,
   55.3094,       610,
   55.3296,       658,
   55.3497,       622,
   55.3699,       633,
   55.3901,       629,
   55.4102,       602,
   55.4304,       640,
   55.4506,       610,
   55.4707,       650,
   55.4909,       632,
   55.5111,       629,
   55.5313,       607,
   55.5514,       585,
   55.5716,       637,
   55.5918,       618,
   55.6119,       600,
   55.6321,       611,
   55.6523,       632,
   55.6724,       604,
   55.6926,       599,
   55.7128,       580,
   55.7329,       632,
   55.7531,       649,
   55.7733,       611,
   55.7934,       635,
   55.8136,       629,
   55.8338,       581,
    55.854,       599,
   55.8741,       611,
   55.8943,       649,
   55.9145,       624,
   55.9346,       625,
   55.9548,       592,
    55.975,       592,
   55.9951,       592,
   56.0153,       584,
   56.0355,       630,
   56.0556,       594,
   56.0758,       583,
    56.096,       612,
   56.1161,       584,
   56.1363,       606,
   56.1565,       578,
   56.1766,       623,
   56.1968,       603,
    56.217,       599,
   56.2372,       646,
   56.2573,       600,
   56.2775,       620,
   56.2977,       582,
   56.3178,       587,
    56.338,       655,
   56.3582,       646,
   56.3783,       636,
   56.3985,       587,
   56.4187,       571,
   56.4388,       631,
    56.459,       589,
   56.4792,       600,
   56.4993,       615,
   56.5195,       680,
   56.5397,       587,
   56.5598,       612,
     56.58,       613,
   56.6002,       624,
   56.6204,       614,
   56.6405,       617,
   56.6607,       612,
   56.6809,       643,
    56.701,       620,
   56.7212,       635,
   56.7414,       593,
   56.7615,       585,
   56.7817,       593,
   56.8019,       580,
    56.822,       588,
   56.8422,       581,
   56.8624,       566,
   56.8825,       573,
   56.9027,       611,
   56.9229,       577,
   56.9431,       594,
   56.9632,       629,
   56.9834,       619,
   57.0036,       614,
   57.0237,       612,
   57.0439,       579,
   57.0641,       607,
   57.0842,       643,
   57.1044,       626,
   57.1246,       605,
   57.1447,       617,
   57.1649,       629,
   57.1851,       613,
   57.2052,       658,
   57.2254,       662,
   57.2456,       610,
   57.2657,       632,
   57.2859,       584,
   57.3061,       616,
   57.3263,       564,
   57.3464,       616,
   57.3666,       636,
   57.3868,       590,
   57.4069,       623,
   57.4271,       588,
   57.4473,       609,
   57.4674,       644,
   57.4876,       635,
   57.5078,       605,
   57.5279,       622,
   57.5481,       619,
   57.5683,       645,
   57.5884,       611,
   57.6086,       651,
   57.6288,       633,
   57.6489,       584,
   57.6691,       606,
   57.6893,       592,
   57.7095,       598,
   57.7296,       572,
   57.7498,       574,
     57.77,       628,
   57.7901,       609,
   57.8103,       602,
   57.8305,       595,
   57.8506,       615,
   57.8708,       594,
    57.891,       636,
   57.9111,       584,
   57.9313,       641,
   57.9515,       637,
   57.9716,       565,
   57.9918,       612,
    58.012,       646,
   58.0322,       589,
   58.0523,       585,
   58.0725,       616,
   58.0927,       602,
   58.1128,       606,
    58.133,       585,
   58.1532,       579,
   58.1733,       594,
   58.1935,       574,
   58.2137,       591,
   58.2338,       589,
    58.254,       639,
   58.2742,       585,
   58.2943,       608,
   58.3145,       601,
   58.3347,       606,
   58.3548,       601,
    58.375,       613,
   58.3952,       567,
   58.4154,       605,
   58.4355,       614,
   58.4557,       652,
   58.4759,       648,
    58.496,       613,
   58.5162,       600,
   58.5364,       564,
   58.5565,       639,
   58.5767,       613,
   58.5969,       597,
    58.617,       621,
   58.6372,       637,
   58.6574,       619,
   58.6775,       631,
   58.6977,       587,
   58.7179,       618,
    58.738,       630,
   58.7582,       582,
   58.7784,       607,
   58.7986,       626,
   58.8187,       604,
   58.8389,       620,
   58.8591,       640,
   58.8792,       613,
   58.8994,       625,
   58.9196,       604,
   58.9397,       613,
   58.9599,       593,
   58.9801,       592,
   59.0002,       564,
   59.0204,       572,
   59.0406,       615,
   59.0607,       591,
   59.0809,       664,
   59.1011,       625,
   59.1213,       616,
   59.1414,       565,
   59.1616,       597,
   59.1818,       572,
   59.2019,       606,
   59.2221,       586,
   59.2423,       598,
   59.2624,       563,
   59.2826,       583,
   59.3028,       599,
   59.3229,       634,
   59.3431,       629,
   59.3633,       597,
   59.3834,       605,
   59.4036,       636,
   59.4238,       613,
   59.4439,       623,
   59.4641,       610,
   59.4843,       615,
   59.5045,       614,
   59.5246,       609,
   59.5448,       608,
    59.565,       567,
   59.5851,       609,
   59.6053,       588,
   59.6255,       574,
   59.6456,       614,
   59.6658,       597,
    59.686,       588,
   59.7061,       615,
   59.7263,       585,
   59.7465,       608,
   59.7666,       577,
   59.7868,       608,
    59.807,       624,
   59.8271,       602,
   59.8473,       580,
   59.8675,       591,
   59.8877,       612,
   59.9078,       577,
    59.928,       571,
   59.9482,       578,
   59.9683,       607,
   59.9885,       639,
   60.0087,       614,
   60.0288,       623,
    60.049,       584,
   60.0692,       583,
   60.0893,       630,
   60.1095,       588,
   60.1297,       604,
   60.1498,       600,
     60.17,       647,
   60.1902,       593,
   60.2104,       580,
   60.2305,       581,
   60.2507,       640,
   60.2709,       583,
    60.291,       551,
   60.3112,       634,
   60.3314,       618,
   60.3515,       590,
   60.3717,       613,
   60.3919,       590,
    60.412,       593,
   60.4322,       593,
   60.4524,       631,
   60.4725,       608,
   60.4927,       612,
   60.5129,       572,
    60.533,       653,
   60.5532,       627,
   60.5734,       598,
   60.5936,       631,
   60.6137,       594,
   60.6339,       587,
   60.6541,       610,
   60.6742,       623,
   60.6944,       577,
   60.7146,       619,
   60.7347,       616,
   60.7549,       613,
   60.7751,       637,
   60.7952,       585,
   60.8154,       583,
   60.8356,       625,
   60.8557,       590,
   60.8759,       566,
   60.8961,       629,
   60.9163,       585,
   60.9364,       591,
   60.9566,       620,
   60.9768,       580,
   60.9969,       618,
   61.0171,       586,
   61.0373,       617,
   61.0574,       601,
   61.0776,       586,
   61.0978,       601,
   61.1179,       595,
   61.1381,       553,
   61.1583,       607,
   61.1784,       596,
   61.1986,       586,
   61.2188,       592,
   61.2389,       568,
   61.2591,       584,
   61.2793,       584,
   61.2995,       632,
   61.3196,       544,
   61.3398,       628,
     61.36,       552,
   61.3801,       621,
   61.4003,       599,
   61.4205,       592,
   61.4406,       618,
   61.4608,       577,
    61.481,       568,
   61.5011,       598,
   61.5213,       562,
   61.5415,       580,
   61.5616,       559,
   61.5818,       646,
    61.602,       582,
   61.6221,       622,
   61.6423,       632,
   61.6625,       592,
   61.6827,       665,
   61.7028,       589,
    61.723,       603,
   61.7432,       595,
   61.7633,       555,
   61.7835,       557,
   61.8037,       595,
   61.8238,       609,
    61.844,       568,
   61.8642,       627,
   61.8843,       602,
   61.9045,       610,
   61.9247,       591,
   61.9448,       589,
    61.965,       626,
   61.9852,       600,
   62.0054,       579,
   62.0255,       604,
   62.0457,       553,
   62.0659,       610,
    62.086,       560,
   62.1062,       613,
   62.1264,       580,
   62.1465,       576,
   62.1667,       579,
   62.1869,       653,
    62.207,       627,
   62.2272,       607,
   62.2474,       625,
   62.2675,       582,
   62.2877,       583,
   62.3079,       586,
    62.328,       629,
   62.3482,       599,
   62.3684,       576,
   62.3886,       570,
   62.4087,       566,
   62.4289,       582,
   62.4491,       633,
   62.4692,       615,
   62.4894,       570,
   62.5096,       567,
   62.5297,       594,
   62.5499,       577,
   62.5701,       600,
   62.5902,       579,
   62.6104,       592,
   62.6306,       640,
   62.6507,       633,
   62.6709,       571,
   62.6911,       614,
   62.7112,       609,
   62.7314,       593,
   62.7516,       597,
   62.7718,       590,
   62.7919,       610,
   62.8121,       605,
   62.8323,       594,
   62.8524,       609,
   62.8726,       605,
   62.8928,       555,
   62.9129,       573,
   62.9331,       631,
   62.9533,       598,
   62.9734,       597,
   62.9936,       592,
   63.0138,       576,
   63.0339,       613,
   63.0541,       598,
   63.0743,       539,
   63.0945,       601,
   63.1146,       595,
   63.1348,       612,
    63.155,       635,
   63.1751,       599,
   63.1953,       639,
   63.2155,       573,
   63.2356,       580,
   63.2558,       583,
    63.276,       597,
   63.2961,       598,
   63.3163,       600,
   63.3365,       578,
   63.3566,       586,
   63.3768,       612,
    63.397,       618,
   63.4171,       570,
   63.4373,       584,
   63.4575,       612,
   63.4777,       560,
   63.4978,       621,
    63.518,       574,
   63.5382,       593,
   63.5583,       583,
   63.5785,       591,
   63.5987,       574,
   63.6188,       635,
    63.639,       618,
   63.6592,       634,
   63.6793,       613,
   63.6995,       563,
   63.7197,       564,
   63.7398,       607,
     63.76,       574,
   63.7802,       604,
   63.8003,       587,
   63.8205,       631,
   63.8407,       605,
   63.8609,       562,
    63.881,       584,
   63.9012,       565,
   63.9214,       584,
   63.9415,       603,
   63.9617,       588,
   63.9819,       602,
    64.002,       582,
   64.0222,       631,
   64.0424,       614,
   64.0625,       579,
   64.0827,       591,
   64.1029,       595,
    64.123,       595,
   64.1432,       612,
   64.1634,       612,
   64.1836,       621,
   64.2037,       607,
   64.2239,       568,
   64.2441,       617,
   64.2642,       557,
   64.2844,       568,
   64.3046,       597,
   64.3247,       585,
   64.3449,       594,
   64.3651,       560,
   64.3852,       592,
   64.4054,       604,
   64.4256,       592,
   64.4457,       580,
   64.4659,       657,
   64.4861,       604,
   64.5062,       575,
   64.5264,       593,
   64.5466,       564,
   64.5668,       596,
   64.5869,       590,
   64.6071,       590,
   64.6273,       619,
   64.6474,       588,
   64.6676,       597,
   64.6878,       602,
   64.7079,       616,
   64.7281,       609,
   64.7483,       613,
   64.7684,       570,
   64.7886,       587,
   64.8088,       573,
   64.8289,       566,
   64.8491,       559,
   64.8693,       631,
   64.8894,       533,
   64.9096,       619,
   64.9298,       569,
     64.95,       573,
   64.9701,       607,
   64.9903,       607,
   65.0105,       570,
   65.0306,       594,
   65.0508,       577,
    65.071,       627,
   65.0911,       582,
   65.1113,       616,
   65.1315,       558,
   65.1516,       606,
   65.1718,       628,
    65.192,       615,
   65.2121,       606,
   65.2323,       565,
   65.2525,       576,
   65.2727,       625,
   65.2928,       593,
    65.313,       600,
   65.3332,       599,
   65.3533,       583,
   65.3735,       595,
   65.3937,       587,
   65.4138,       599,
    65.434,       595,
   65.4542,       605,
   65.4743,       599,
   65.4945,       593,
   65.5147,       547,
   65.5348,       627,
    65.555,       617,
   65.5752,       605,
   65.5953,       573,
   65.6155,       625,
   65.6357,       619,
   65.6559,       552,
    65.676,       651,
   65.6962,       619,
   65.7164,       574,
   65.7365,       602,
   65.7567,       597,
   65.7769,       587,
    65.797,       594,
   65.8172,       623,
   65.8374,       549,
   65.8575,       570,
   65.8777,       576,
   65.8979,       590,
    65.918,       571,
   65.9382,       583,
   65.9584,       610,
   65.9786,       541,
   65.9987,       555,
   66.0189,       575,
   66.0391,       573,
   66.0592,       589,
   66.0794,       585,
   66.0996,       568,
   66.1197,       585,
   66.1399,       618,
   66.1601,       608,
   66.1802,       589,
   66.2004,       616,
   66.2206,       646,
   66.2407,       608,
   66.2609,       612,
   66.2811,       579,
   66.3012,       582,
   66.3214,       624,
   66.3416,       586,
   66.3618,       578,
   66.3819,       563,
   66.4021,       634,
   66.4223,       599,
   66.4424,       536,
   66.4626,       608,
   66.4828,       584,
   66.5029,       615,
   66.5231,       638,
   66.5433,       578,
   66.5634,       569,
   66.5836,       623,
   66.6038,       615,
   66.6239,       581,
   66.6441,       579,
   66.6643,       612,
   66.6844,       576,
   66.7046,       620,
   66.7248,       613,
    66.745,       562,
   66.7651,       608,
   66.7853,       616,
   66.8055,       580,
   66.8256,       611,
   66.8458,       624,
    66.866,       607,
   66.8861,       568,
   66.9063,       602,
   66.9265,       624,
   66.9466,       601,
   66.9668,       570,
    66.987,       578,
   67.0071,       610,
   67.0273,       667,
   67.0475,       609,
   67.0677,       635,
   67.0878,       595,
    67.108,       601,
   67.1282,       606,
   67.1483,       599,
   67.1685,       570,
   67.1887,       568,
   67.2088,       591,
    67.229,       595,
   67.2492,       581,
   67.2693,       593,
   67.2895,       558,
   67.3097,       588,
   67.3298,       532,
     67.35,       571,
   67.3702,       551,
   67.3903,       631,
   67.4105,       607,
   67.4307,       583,
   67.4509,       612,
    67.471,       609,
   67.4912,       609,
   67.5114,       599,
   67.5315,       562,
   67.5517,       606,
   67.5719,       619,
    67.592,       622,
   67.6122,       550,
   67.6324,       579,
   67.6525,       603,
   67.6727,       551,
   67.6929,       614,
    67.713,       568,
   67.7332,       604,
   67.7534,       580,
   67.7735,       607,
   67.7937,       566,
   67.8139,       595,
   67.8341,       582,
   67.8542,       589,
   67.8744,       573,
   67.8946,       592,
   67.9147,       609,
   67.9349,       562,
   67.9551,       591,
   67.9752,       593,
   67.9954,       541,
   68.0156,       582,
   68.0357,       584,
   68.0559,       613,
   68.0761,       546,
   68.0962,       606,
   68.1164,       585,
   68.1366,       578,
   68.1568,       562,
   68.1769,       605,
   68.1971,       586,
   68.2173,       583,
   68.2374,       602,
   68.2576,       562,
   68.2778,       607,
   68.2979,       556,
   68.3181,       573,
   68.3383,       633,
   68.3584,       627,
   68.3786,       615,
   68.3988,       583,
   68.4189,       581,
   68.4391,       611,
   68.4593,       575,
   68.4794,       635,
   68.4996,       608,
   68.5198,       588,
     68.54,       582,
   68.5601,       557,
   68.5803,       612,
   68.6005,       617,
   68.6206,       594,
   68.6408,       605,
    68.661,       559,
   68.6811,       597,
   68.7013,       591,
   68.7215,       543,
   68.7416,       564,
   68.7618,       575,
    68.782,       622,
   68.8021,       601,
   68.8223,       590,
   68.8425,       602,
   68.8626,       574,
   68.8828,       573,
    68.903,       609,
   68.9232,       607,
   68.9433,       605,
   68.9635,       613,
   68.9837,       604,
   69.0038,       556,
    69.024,       583,
   69.0442,       620,
   69.0643,       577,
   69.0845,       594,
   69.1047,       590,
   69.1248,       567,
    69.145,       566,
   69.1652,       585,
   69.1853,       606,
   69.2055,       571,
   69.2257,       602,
   69.2459,       585,
    69.266,       606,
   69.2862,       592,
   69.3064,       595,
   69.3265,       565,
   69.3467,       628,
   69.3669,       537,
    69.387,       595,
   69.4072,       590,
   69.4274,       584,
   69.4475,       622,
   69.4677,       617,
   69.4879,       614,
    69.508,       576,
   69.5282,       574,
   69.5484,       617,
   69.5685,       612,
   69.5887,       581,
   69.6089,       618,
   69.6291,       577,
   69.6492,       576,
   69.6694,       556,
   69.6896,       609,
   69.7097,       605,
   69.7299,       588,
   69.7501,       620,
   69.7702,       613,
   69.7904,       617,
   69.8106,       566,
   69.8307,       584,
   69.8509,       599,
   69.8711,       566,
   69.8912,       654,
   69.9114,       562,
   69.9316,       630,
   69.9517,       575,
   69.9719,       607,
   69.9921,       605,
   70.0123,       631,
   70.0324,       555,
   70.0526,       572,
   70.0728,       595,
   70.0929,       564,
   70.1131,       586,
   70.1333,       609,
   70.1534,       530,
   70.1736,       577,
   70.1938,       632,
   70.2139,       593,
   70.2341,       595,
   70.2543,       577,
   70.2744,       596,
   70.2946,       605,
   70.3148,       567,
    70.335,       592,
   70.3551,       582,
   70.3753,       610,
   70.3955,       633,
   70.4156,       604,
   70.4358,       584,
    70.456,       592,
   70.4761,       597,
   70.4963,       566,
   70.5165,       626,
   70.5366,       593,
   70.5568,       601,
    70.577,       609,
   70.5971,       590,
   70.6173,       564,
   70.6375,       603,
   70.6576,       619,
   70.6778,       590,
    70.698,       597,
   70.7182,       597,
   70.7383,       598,
   70.7585,       572,
   70.7787,       634,
   70.7988,       618,
    70.819,       614,
   70.8392,       591,
   70.8593,       617,
   70.8795,       589,
   70.8997,       605,
   70.9198,       593,
     70.94,       608,
   70.9602,       592,
   70.9803,       590,
   71.0005,       581,
   71.0207,       628,
   71.0409,       586,
    71.061,       664,
   71.0812,       603,
   71.1014,       613,
   71.1215,       528,
   71.1417,       629,
   71.1619,       579,
    71.182,       586,
   71.2022,       599,
   71.2224,       597,
   71.2425,       586,
   71.2627,       573,
   71.2829,       574,
    71.303,       626,
   71.3232,       604,
   71.3434,       594,
   71.3635,       626,
   71.3837,       616,
   71.4039,       609,
   71.4241,       627,
   71.4442,       648,
   71.4644,       591,
   71.4846,       608,
   71.5047,       590,
   71.5249,       567,
   71.5451,       641,
   71.5652,       708,
   71.5854,       583,
   71.6056,       622,
   71.6257,       581,
   71.6459,       650,
   71.6661,       610,
   71.6862,       609,
   71.7064,       617,
   71.7266,       604,
   71.7467,       618,
   71.7669,       575,
   71.7871,       622,
   71.8073,       620,
   71.8274,       581,
   71.8476,       610,
   71.8678,       618,
   71.8879,       629,
   71.9081,       626,
   71.9283,       586,
   71.9484,       629,
   71.9686,       611,
   71.9888,       614,
   72.0089,       618,
   72.0291,       550,
   72.0493,       615,
   72.0694,       615,
   72.0896,       627,
   72.1098,       627,
     72.13,       609,
   72.1501,       573,
   72.1703,       557,
   72.1905,       609,
   72.2106,       594,
   72.2308,       590,
    72.251,       620,
   72.2711,       588,
   72.2913,       601,
   72.3115,       628,
   72.3316,       577,
   72.3518,       573,
    72.372,       585,
   72.3921,       615,
   72.4123,       617,
   72.4325,       598,
   72.4526,       622,
   72.4728,       624,
    72.493,       631,
   72.5132,       652,
   72.5333,       573,
   72.5535,       593,
   72.5737,       608,
   72.5938,       619,
    72.614,       600,
   72.6342,       592,
   72.6543,       633,
   72.6745,       589,
   72.6947,       563,
   72.7148,       624,
    72.735,       599,
   72.7552,       622,
   72.7753,       591,
   72.7955,       609,
   72.8157,       592,
   72.8358,       598,
    72.856,       704,
   72.8762,       629,
   72.8964,       603,
   72.9165,       649,
   72.9367,       565,
   72.9569,       629,
    72.977,       622,
   72.9972,       562,
   73.0174,       587,
   73.0375,       585,
   73.0577,       587,
   73.0779,       617,
    73.098,       640,
   73.1182,       596,
   73.1384,       579,
   73.1585,       601,
   73.1787,       614,
   73.1989,       597,
   73.2191,       597,
   73.2392,       574,
   73.2594,       631,
   73.2796,       632,
   73.2997,       638,
   73.3199,       611,
   73.3401,       643,
   73.3602,       632,
   73.3804,       621,
   73.4006,       611,
   73.4207,       606,
   73.4409,       561,
   73.4611,       629,
   73.4812,       642,
   73.5014,       650,
   73.5216,       628,
   73.5417,       602,
   73.5619,       639,
   73.5821,       635,
   73.6023,       625,
   73.6224,       655,
   73.6426,       651,
   73.6628,       628,
   73.6829,       613,
   73.7031,       670,
   73.7233,       662,
   73.7434,       669,
   73.7636,       658,
   73.7838,       688,
   73.8039,       700,
   73.8241,       749,
   73.8443,       727,
   73.8644,       724,
   73.8846,       772,
   73.9048,       798,
   73.9249,       799,
   73.9451,       864,
   73.9653,       800,
   73.9855,       791,
   74.0056,       812,
   74.0258,       913,
    74.046,       846,
   74.0661,       902,
   74.0863,       938,
   74.1065,      1004,
   74.1266,      1089,
   74.1468,      1246,
    74.167,      1430,
   74.1871,      1777,
   74.2073,      2510,
   74.2275,      3761,
   74.2476,      6169,
   74.2678,      9188,
    74.288,     10577,
   74.3082,      9161,
   74.3283,      6319,
   74.3485,      3922,
   74.3687,      2635,
   74.3888,      2098,
    74.409,      2007,
   74.4292,      2168,
   74.4493,      2875,
   74.4695,      4165,
   74.4897,      5442,
   74.5098,      5499,
     74.53,      4552,
   74.5502,      3150,
   74.5703,      2050,
   74.5905,      1551,
   74.6107,      1273,
   74.6308,      1054,
    74.651,       943,
   74.6712,       911,
   74.6914,       868,
   74.7115,       819,
   74.7317,       781,
   74.7519,       726,
    74.772,       741,
   74.7922,       712,
   74.8124,       722,
   74.8325,       706,
   74.8527,       691,
   74.8729,       714,
    74.893,       638,
   74.9132,       625,
   74.9334,       693,
   74.9535,       661,
   74.9737,       651,
   74.9939,       654,
    75.014,       633,
   75.0342,       659,
   75.0544,       624,
   75.0746,       598,
   75.0947,       642,
   75.1149,       584,
   75.1351,       619,
   75.1552,       629,
   75.1754,       639,
   75.1956,       645,
   75.2157,       586,
   75.2359,       649,
   75.2561,       631,
   75.2762,       624,
   75.2964,       660,
   75.3166,       643,
   75.3367,       589,
   75.3569,       620,
   75.3771,       608,
   75.3973,       636,
   75.4174,       607,
   75.4376,       604,
   75.4578,       634,
   75.4779,       620,
   75.4981,       583,
   75.5183,       609,
   75.5384,       639,
   75.5586,       565,
   75.5788,       626,
   75.5989,       605,
   75.6191,       611,
   75.6393,       644,
   75.6594,       625,
   75.6796,       555,
   75.6998,       608,
   75.7199,       566,
   75.7401,       613,
   75.7603,       629,
   75.7805,       621,
   75.8006,       605,
   75.8208,       605,
    75.841,       607,
   75.8611,       589,
   75.8813,       605,
   75.9015,       639,
   75.9216,       568,
   75.9418,       618,
    75.962,       639,
   75.9821,       637,
   76.0023,       634,
   76.0225,       617,
   76.0426,       615,
   76.0628,       612,
    76.083,       609,
   76.1032,       576,
   76.1233,       628,
   76.1435,       633,
   76.1637,       573,
   76.1838,       592,
    76.204,       597,
   76.2242,       640,
   76.2443,       617,
   76.2645,       607,
   76.2847,       624,
   76.3048,       609,
    76.325,       600,
   76.3452,       627,
   76.3653,       613,
   76.3855,       594,
   76.4057,       608,
   76.4258,       631,
    76.446,       603,
   76.4662,       602,
   76.4864,       596,
   76.5065,       566,
   76.5267,       649,
   76.5469,       606,
    76.567,       579,
   76.5872,       602,
   76.6074,       636,
   76.6275,       623,
   76.6477,       624,
   76.6679,       611,
    76.688,       547,
   76.7082,       583,
   76.7284,       579,
   76.7485,       614,
   76.7687,       658,
   76.7889,       607,
    76.809,       627,
   76.8292,       600,
   76.8494,       621,
   76.8696,       584,
   76.8897,       640,
   76.9099,       607,
   76.9301,       612,
   76.9502,       580,
   76.9704,       628,
   76.9906,       614,
   77.0107,       610,
   77.0309,       515,
   77.0511,       655,
   77.0712,       617,
   77.0914,       640,
   77.1116,       610,
   77.1317,       572,
   77.1519,       627,
   77.1721,       602,
   77.1923,       601,
   77.2124,       606,
   77.2326,       637,
   77.2528,       600,
   77.2729,       598,
   77.2931,       573,
   77.3133,       588,
   77.3334,       611,
   77.3536,       624,
   77.3738,       626,
   77.3939,       609,
   77.4141,       556,
   77.4343,       596,
   77.4544,       595,
   77.4746,       565,
   77.4948,       604,
   77.5149,       634,
   77.5351,       583,
   77.5553,       596,
   77.5755,       585,
   77.5956,       601,
   77.6158,       593,
    77.636,       574,
   77.6561,       585,
   77.6763,       589,
   77.6965,       579,
   77.7166,       578,
   77.7368,       617,
    77.757,       599,
   77.7771,       619,
   77.7973,       596,
   77.8175,       641,
   77.8376,       598,
   77.8578,       619,
    77.878,       591,
   77.8981,       568,
   77.9183,       597,
   77.9385,       647,
   77.9587,       557,
   77.9788,       568,
    77.999,       620,
