;RAW4.00
[RawHeader]
Date=11/25/2025
EstimatedTotalTime=426.6
FurtherDQLReading=0
HardwareIndicator=65519
MeasuredTotalTime=4.29424
MeasurementFlag=1
NumberOfMeasuredRanges=1
NumberOfRanges=1
Time=21:00:51

[VarInfo]
Type=USER
Flags=0
Value=Lab Manager

[VarInfo]
Type=SAMPLEID
Flags=0
Value=Commander Sample ID

[VarInfo]
Type=COMMENT
Flags=0
Value=

[VarInfo]
Type=UTF
Flags=0
Value=

[VarInfo]
Type=CREATOR
Flags=0
Value=V5Converter

[VarInfo]
Type=CREATOR_VERSION
Flags=0
Value=4.4.16.0

[HardwareConfiguration]
AbsorptionFactor=9999
ActivateAbsorber=0
Alpha1=1.5406
Alpha2=1.54439
AlphaAverage=1.54184
AlphaRatio=0.5
Analyzer=0
Anode=Cu
AntiScatteringSlit=9999
BeamOpticsFlags=0
Beta=1.39222
BetaRelativeIntensity=0
DeactivateAbsorber=0
DetectorSlit=9999
DivergenceSlit=9999
GoniometerControl=0
GoniometerDiameter=282
GoniometerModel=256
GoniometerStage=7
Monochromator=0
NearSampleSlit=9999
PrimarySollerSlit=9999
SampleChanger=0
SecondSollerSlit=9999
SynchronousAxis=0
ThinFilmAttachment=9999
WaveUnit=A

[RangeHeader]
ActuallyUsedLambda=1.54184
AdditionalDetectorMask=257
DataRecordLength=4
DelayTime=0
DisplayPlaneNumber=0
EstimatedScanTime=427
ExtraParametersMask=0
GeneratorCurrent=10
GeneratorVoltage=30
Increment=0.0201685
Increment3=0
NumberOfCompletedData=1885
NumberOfCounts=1
NumberOfDetectors=0
NumberOfDrives=3
NumberOfEncoderDrives=0
NumberOfMeasuredData=1885
NumberOfVaryingParameters=0
RangeStartTime=0
RotationSpeed=0
ScanMode=1
ScanType=Locked Coupled
SimulatedMeasConditions=0
SlitChangerIn=0
SmootingWidth=0
Start=40.0015
Steps=1885
SynchronousRotation=0
Time=33

[VarInfo]
Type=PSD_DISCRIM
Flags=0
Value=0.11;0.5

[VarInfo]
Type=OPTICS_V5
Flags=0
Value=H4sIAAAAAAAEAO1d63KjOhJ+Fda/zqmtBIPtXKaITzm2J+OaOHbFTnKmtrZcBORYZzC4AOey//d99hl2X2x1QViIS8C3JBN+TCaodWm6+2vUUkfS/nieW9IjcD3o2GcV5bBakYBtOCa0H84qS396oBxV/mhqF44NnTnwgdt25gvHBrbf0X1dQq1t78uzB88qM99ffJHlp6enw6faoeM+yGq1qsh/9i9HxgzM9QNoe75uG6AStjJfb1WRbqEH7y1wpc/BWWXFR0joAM9w4cInL/Bj4UHLsSW+3oXrLBc9NBZ6t3Pgojcb3P8FDH+o+7OzitwBj9AAMt+CrxUfl1Lblu55QRehTORzoM8XqLDt2L4ObeBy/coBc6yHluEvdYtxoR6o1ePT02O5h8TkLue4tzhrTW2EZGjqqBswQr3oFvyXjl+9OdUtD2hyGln7c259hcAyrwHqHhq4EDFpA/KbJ8lNjfKD1ToCFipvdm00JDA1OUbR6Btwou9Ab2HpL824AjQ5tXK8m+bF4OrHhPzodEft64TGrBVWDOsoPhpP1bBWhrxWvISy1r0hIUP+4r8skMLHrm78xG8sGODQhXPdfSHkZBMMakgD9GxISBvSeHkPOIFIQeOidilHx44baRI9r5mSRmyEDSxUYBJZ3blu/xy4JnCvAfYzAL0wsdX3b8s5NVnMwIfj6+8T9KPV/l7IxHm5Jhp5z0OvBh9BE+kGCS98DAk920dCZMIVSikeHA9SJulgmhwp1bAq2ZMXfZT4B2LSAxc+QFu3ogSlwl6OWi7Ssb/0moPwnSLFGmsYPPedJdIj0qJQrgWE0MJ5JCOdEXICmjFtjmnJUA7J0tRxpRHQLUBtYA3AytxYcejGiMm4JZa46kmmLG0LrhEWBa3xcus++8A2MZDfDYZpCWdMkQKtj5nwHfcltGVFk+OFGseMJxH2qHoYWND7cnJosmJN5ku1uCnh1+H65qyTKx3Y545jAR1NEG5s6BPpdiDSG56bXcI59IlYwiKvWdVk7knrgKm+tPxb3VoCboigVyQ96CPXTshnFewlKri/oQta5l9LD8GnYEuZYx67mbHTJoqe6ZblPK0cjVCOarZnwPgJzFUVVqC1ESPOHKsWvx33pNH5Zl7erhEyxkg2xVq1lr7TdoHug6HrLIDrvzAWEyiR9/eIRfdMhLKr5fweuE21rslCEdaQRS08UPF//xMyUSUc9B0TNG8Quqbos4xMnTwz90Y+PzEHluy7tuWt5HgP/ND5vNXOHBXjLvaN2aNbYuh5A79Evm3IJvErCL6JJ23LP418rD3OPSHRTOHDEjnla/gw85sIdabECnU0BoKwUKWYS+vrz5fAfvBnTbXRwKJhj2nOjrJISkNktZevObqMVm/q5DL4SnFwGS02cm5pFninPwKqkpa1mOmKYIUieVuWOJh2nCVqyWzxf//ehzWm2Nxw9uJBQ7dIeQJnTA/KYaNePXrNFtfo7ca2MPfItOjcf/WMZelYS+paugfVBtErK9H60Ibz5bx5oBwenx4fndaUWv3kSK0pjePu32vVE4S4oAZGIvklvWZQ4W0Rs4b0UpC0Rk/7QJiajTD10yOsXjvdJsRYdyXGNhLfFkDGuto1yh6Bqz+IoV6M/ulxppzUt4kz1l2Js43EtwWcsa52jLNz4OupIMPET46w2qmqqttD2Kq7EmEbiW9jhK262jHCrvGaRirECHVXGHuvCFutth02NsJWrKMSVWsKbh08xTrZCZK+OsbSG7gQ2D5ZHRSgJJK3tspG1g4H057tH9XfH6CibEVXr/OjKbkXhfRCBYDfqOeDOWLs0nmABl3VvJn0rm5bl73OpP2tN9TkFYkJfAye/WbPftQtiMQzg4uVjCJaIvW07+CFjI1lEf6uyTEWsnm67F2lsnIJbSARW0kbWtlk6OEgY+yhA20/e3B1k8GZLoaD0auqCHeKD6S58wgk35HmwJjpNrYKCTmTxd/SeKxl8/ienF2WXefzdFk9bOTm6N5Lz546UqiqhAVciZbr3FOQY3BWIVUkVBrdJr+ZtC6H31rRcrGRhEeyyEjkXXKxo0bYURPZUVPYUbPYUQuzEywL8PxEyoQBQloib5PW7UUWe0HrokySmCrg8D78PeybkkWGzrvjVjIvuH4+FiIbUQEDqBXeyxN46LJSkY3uZbffvRqnSMV2TCAFbaXVSDlkQmfBvNq4EkHsASVZZdetcW+QpTTSOp+8YlOLgL9pYnk4ToQicvl10J4MrpMZJONJkeZyfMe6Ed+xvgA2skTfcYU8TFacvPmcsQFLZ8dr7r82tXQiP3O7dSw/voYXlO4q5vl5u6WEjcypLxqFfRNqVSHyCL4FKaFHctihVBMCjFp1f7FErbF+MBEXRsEvZLo55TW19tJ1sT+LmlpQuitTm7f2YWpolHD6sQ1TaySFsh/E0uKy2LulDZ0nkgHOmxQp25WV3aUEnW+xcHMnRJr5lluqhymm+EkWW+4491hde7Ul3ssWbV9+7YtfJA0UTQyNGXBfyVbbPA8ud74bklUw60j9YgWfilQ/I4dzraYmBmuZ2QhiKJW9qxqLdLI3h6IxR/YytzAXT1vD42MIIXVJnC4nR8cylyaJ7OZRhxZeJcCPHu2eWH2ZQFkmUJYJlGUCZZlA+fE2xcsEyvezJV4mUP6aCCsTKN8TxsoEyl8VZ2UC5XvCWZlA+ashrEygfE8IKxMoywTKMoGyTKAsEyjLBMoygbJMoCwTKMsEyjKBskygLBMoywTKMoGyTKAsEyjLBMoygbJMoHzr+KNMoCwTKD9tAiXLkUS/iumT7KzT+Cmg4tm7GScqd+cL/4UkG4arGcVOT+72h4PRhP4scnoyGTg0xcTzk2U+BzLzcGMl7XBjde+HGw8WbefceR5MR45lATfhiGNKyDjkmKsg/WbotmTQQ8ElNJZEifQE7N/XgX9k+LhXSSBnuYaE6hunwkb7FPSZfOxxRGTIPPKL8PePe2KymphYK0bAR+scevtxXAin6Q2diJrmRGpv50S+wmdgEkNlcw/RmVjQz3IliCz1U2CAaRv4kdXICV5EJGb6ELHy5h6E61FQZYr/YA2o98gntQ/sOmq5XMfxeudlE7OmVzSsTJpYMhZe0hcRy1SR/jGf/zPDjH/DR/7fA2QfErQ9hAVgol98R9I5hWWaMq5mhBds4KeJUp0oaQYcIb5mwIVtN52ZmPP5qH/5US30lx930PRnYm4HLtvZktP8/WxBxzgL44DNsuvjPeVdZqh+7nWGuODWWWeI97KTtI5vABumgB1a+LnBszXslNBZz+i3gpzt3wSirjOzGenzhQXuZgBYY/QC/KUgIkkjH65UJ0ChmfamMj+F+lCxGJtFbxiJ1dIisfpGkRjhMR6HvT9h3thLD5hkeHHgLInKwm1g17oJl16CldWVYB+fXrg3mE494KdZfesZevz3Iay2B1ceYybnbh1ywVU1LSlVPTypn6qNRkNN8LvHjcOTRv24dqQqvK8VhNAM7mETbitc+w7DEUCRgJl9i2FYh7v9roNCXwNnMmzhLkORh4SYKLFGsfsMwz42ifVFRj70nYaF9FrM/4zwzYaj4jcbRuW787sNw+F2cbvhyRss3uHlOks3wMyxzMQtgMsX+xm8pBxzcfnj6s/ujy654bCjSsOZ7olX4OYEsRyOEwezQMpa3mDWKOO8X3k4Wj2jProvYAvX6KYzLmrzl7v28CTPUlxNiU9Yi8wL0ecUu0XdWrmWfniNJk2pxn6HJHazGl4xZ9PpjyfkXwFHw4ba6R6gstmscZebgP09bgIKCIswkLYN2N/zNmAmj6JSs3YC+59rJ1Cp53Ii1c+wFVhGSkUjpbRAqXF4dHrSUJRqPWmBqqEcHldP68dqfQeB0sontAHGieA9hcKI4+SmzLSadMAw70kjnLfkkW8dVkPLMIDnOS4E3hoRE+Mi7j2jlLwRUvyl1/ekrIcPHRqtqcpiLudicNWekB9FHA7lZ+eh0Ri4qHQnkdHp3mdFwxkkShPAfO0EGXBRYgTUqKlErdE1Wb0CGJXZGHSdNqGDKCsJ1TJnP6vqMuJUZpxuDuAUxgVFpsREEgUYMFu+rxszPNBZ5WDPRwluc5pzmitr4SQ+y+l5TBQhKMMCjfMcZLfIWj48ALPjYkzSv8ZE3eHvWs9sIu2S3oNHTCEVRwtgwGnwt6KsUpyC4BLvvcgEK46DYs5u+K03mpAfRZxdFKHbnGBVi0yvQisOP5lEYfRDEPwf22IqXU7pckqXI7qcECvsd+8VLsZPznhGTjB6jZVIzZz8ZA+dc9yig6ZEJvFifFQxXo8YAd9H0PIkfi6GHAXNPKxILbzB7vVR6AbplI5NtLGOuVT/5i2e1Rn4EFu+VFtBkewhB6uqmiyUa3yqI/WAkWUTj/6JxSqYYK6D6Pv/u9RXv2COAAA=

[PSD]
ActualTwoTheta=9999
FirstUsedChannel=0
FixedPSD=0
PSDOpening=4.99171
PSDType=5

[Drive]
DriveFlags=1
DriveName=2Theta
DriveNumber=2
DriveOffset=0
OffsetIndex=0
OscillationAmplitude=0
OscillationSpeed=0
StartPosition=40.0015

[Drive]
DriveFlags=1
DriveName=Theta
DriveNumber=1
DriveOffset=0
OffsetIndex=0
OscillationAmplitude=0
OscillationSpeed=0
StartPosition=20.0007

[Drive]
DriveFlags=1
DriveName=Phi
DriveNumber=3
DriveOffset=0
OffsetIndex=0
OscillationAmplitude=0
OscillationSpeed=0
StartPosition=0

[Data]
     Angle,       PSD,
   40.0015,       659,
   40.0217,       669,
   40.0418,       680,
    40.062,       655,
   40.0822,       661,
   40.1023,       623,
   40.1225,       634,
   40.1427,       643,
   40.1628,       648,
    40.183,       629,
   40.2032,       614,
   40.2233,       689,
   40.2435,       676,
   40.2637,       669,
   40.2838,       670,
    40.304,       648,
   40.3242,       646,
   40.3444,       672,
   40.3645,       696,
   40.3847,       676,
   40.4049,       671,
    40.425,       620,
   40.4452,       658,
   40.4654,       675,
   40.4855,       639,
   40.5057,       629,
   40.5259,       652,
    40.546,       657,
   40.5662,       665,
   40.5864,       690,
   40.6065,       652,
   40.6267,       659,
   40.6469,       678,
   40.6671,       643,
   40.6872,       666,
   40.7074,       708,
   40.7276,       696,
   40.7477,       686,
   40.7679,       669,
   40.7881,       685,
   40.8082,       661,
   40.8284,       679,
   40.8486,       681,
   40.8687,       689,
   40.8889,       667,
   40.9091,       686,
   40.9292,       658,
   40.9494,       655,
   40.9696,       703,
   40.9897,       685,
   41.0099,       656,
   41.0301,       694,
   41.0503,       655,
   41.0704,       639,
   41.0906,       685,
   41.1108,       682,
   41.1309,       683,
   41.1511,       660,
   41.1713,       649,
   41.1914,       654,
   41.2116,       690,
   41.2318,       722,
   41.2519,       684,
   41.2721,       671,
   41.2923,       668,
   41.3124,       648,
   41.3326,       682,
   41.3528,       706,
   41.3729,       664,
   41.3931,       700,
   41.4133,       679,
   41.4335,       708,
   41.4536,       704,
   41.4738,       723,
    41.494,       695,
   41.5141,       689,
   41.5343,       685,
   41.5545,       685,
   41.5746,       726,
   41.5948,       720,
    41.615,       688,
   41.6351,       686,
   41.6553,       685,
   41.6755,       715,
   41.6956,       801,
   41.7158,       733,
    41.736,       780,
   41.7562,       776,
   41.7763,       707,
   41.7965,       786,
   41.8167,       795,
   41.8368,       757,
    41.857,       782,
   41.8772,       797,
   41.8973,       798,
   41.9175,       836,
   41.9377,       760,
   41.9578,       794,
    41.978,       763,
   41.9982,       828,
   42.0183,       803,
   42.0385,       861,
   42.0587,       804,
   42.0788,       827,
    42.099,       854,
   42.1192,       826,
   42.1394,       927,
   42.1595,       835,
   42.1797,       855,
   42.1999,       859,
     42.22,       918,
   42.2402,       881,
   42.2604,       867,
   42.2805,       887,
   42.3007,       940,
   42.3209,       881,
    42.341,       883,
   42.3612,       951,
   42.3814,       907,
   42.4015,       912,
   42.4217,       921,
   42.4419,       882,
    42.462,       906,
   42.4822,       897,
   42.5024,       951,
   42.5226,       978,
   42.5427,       966,
   42.5629,      1021,
   42.5831,       990,
   42.6032,       985,
   42.6234,      1055,
   42.6436,      1030,
   42.6637,      1096,
   42.6839,      1044,
   42.7041,      1153,
   42.7242,      1152,
   42.7444,      1204,
   42.7646,      1188,
   42.7847,      1224,
   42.8049,      1246,
   42.8251,      1380,
   42.8453,      1372,
   42.8654,      1488,
   42.8856,      1545,
   42.9058,      1669,
   42.9259,      1686,
   42.9461,      1782,
   42.9663,      1912,
   42.9864,      1941,
   43.0066,      2076,
   43.0268,      2304,
   43.0469,      2541,
   43.0671,      2763,
   43.0873,      2932,
   43.1074,      3390,
   43.1276,      3778,
   43.1478,      4201,
   43.1679,      4854,
   43.1881,      5538,
   43.2083,      6399,
   43.2285,      7664,
   43.2486,      8787,
   43.2688,     10131,
    43.289,     11917,
   43.3091,     13306,
   43.3293,     14819,
   43.3495,     15705,
   43.3696,     15944,
   43.3898,     15749,
     43.41,     15236,
   43.4301,     14344,
   43.4503,     13526,
   43.4705,     12648,
   43.4906,     11391,
   43.5108,      9934,
    43.531,      8870,
   43.5511,      7653,
   43.5713,      6610,
   43.5915,      5696,
   43.6117,      5060,
   43.6318,      4590,
    43.652,      4064,
   43.6722,      3584,
   43.6923,      3220,
   43.7125,      2927,
   43.7327,      2516,
   43.7528,      2417,
    43.773,      2228,
   43.7932,      2139,
   43.8133,      1960,
   43.8335,      1941,
   43.8537,      1748,
   43.8738,      1677,
    43.894,      1599,
   43.9142,      1503,
   43.9344,      1468,
   43.9545,      1384,
   43.9747,      1336,
   43.9949,      1288,
    44.015,      1337,
   44.0352,      1206,
   44.0554,      1248,
   44.0755,      1156,
   44.0957,      1125,
   44.1159,      1148,
    44.136,      1143,
   44.1562,      1049,
   44.1764,      1074,
   44.1965,      1014,
   44.2167,      1030,
   44.2369,      1018,
    44.257,      1019,
   44.2772,      1026,
   44.2974,       977,
   44.3176,       995,
   44.3377,       986,
   44.3579,       979,
   44.3781,       921,
   44.3982,       969,
   44.4184,       924,
   44.4386,       897,
   44.4587,       949,
   44.4789,       994,
   44.4991,       927,
   44.5192,       918,
   44.5394,       915,
   44.5596,       880,
   44.5797,       894,
   44.5999,       855,
   44.6201,       903,
   44.6402,       952,
   44.6604,       846,
   44.6806,       870,
   44.7008,       879,
   44.7209,       865,
   44.7411,       839,
   44.7613,       838,
   44.7814,       799,
   44.8016,       868,
   44.8218,       875,
   44.8419,       863,
   44.8621,       795,
   44.8823,       830,
   44.9024,       864,
   44.9226,       811,
   44.9428,       800,
   44.9629,       815,
   44.9831,       853,
   45.0033,       791,
   45.0235,       872,
   45.0436,       820,
   45.0638,       842,
    45.084,       776,
   45.1041,       870,
   45.1243,       776,
   45.1445,       812,
   45.1646,       750,
   45.1848,       829,
    45.205,       840,
   45.2251,       781,
   45.2453,       786,
   45.2655,       821,
   45.2856,       755,
   45.3058,       804,
    45.326,       786,
   45.3461,       788,
   45.3663,       745,
   45.3865,       778,
   45.4067,       749,
   45.4268,       740,
    45.447,       780,
   45.4672,       777,
   45.4873,       770,
   45.5075,       753,
   45.5277,       806,
   45.5478,       752,
    45.568,       777,
   45.5882,       776,
   45.6083,       801,
   45.6285,       724,
   45.6487,       729,
   45.6688,       783,
    45.689,       804,
   45.7092,       718,
   45.7294,       802,
   45.7495,       815,
   45.7697,       738,
   45.7899,       756,
     45.81,       703,
   45.8302,       776,
   45.8504,       770,
   45.8705,       755,
   45.8907,       770,
   45.9109,       790,
    45.931,       727,
   45.9512,       779,
   45.9714,       773,
   45.9915,       782,
   46.0117,       706,
   46.0319,       761,
    46.052,       767,
   46.0722,       755,
   46.0924,       719,
   46.1126,       748,
   46.1327,       739,
   46.1529,       724,
   46.1731,       787,
   46.1932,       777,
   46.2134,       749,
   46.2336,       721,
   46.2537,       717,
   46.2739,       731,
   46.2941,       771,
   46.3142,       749,
   46.3344,       717,
   46.3546,       771,
   46.3747,       725,
   46.3949,       717,
   46.4151,       717,
   46.4352,       732,
   46.4554,       694,
   46.4756,       716,
   46.4958,       727,
   46.5159,       761,
   46.5361,       784,
   46.5563,       736,
   46.5764,       685,
   46.5966,       780,
   46.6168,       741,
   46.6369,       710,
   46.6571,       749,
   46.6773,       748,
   46.6974,       730,
   46.7176,       720,
   46.7378,       704,
   46.7579,       693,
   46.7781,       736,
   46.7983,       742,
   46.8185,       721,
   46.8386,       706,
   46.8588,       712,
    46.879,       705,
   46.8991,       738,
   46.9193,       705,
   46.9395,       702,
   46.9596,       727,
   46.9798,       738,
        47,       735,
   47.0201,       747,
   47.0403,       734,
   47.0605,       717,
   47.0806,       714,
   47.1008,       730,
    47.121,       784,
   47.1411,       748,
   47.1613,       692,
   47.1815,       687,
   47.2017,       751,
   47.2218,       730,
    47.242,       688,
   47.2622,       690,
   47.2823,       736,
   47.3025,       786,
   47.3227,       695,
   47.3428,       735,
    47.363,       712,
   47.3832,       703,
   47.4033,       707,
   47.4235,       714,
   47.4437,       720,
   47.4638,       664,
    47.484,       700,
   47.5042,       772,
   47.5243,       755,
   47.5445,       716,
   47.5647,       715,
   47.5849,       729,
    47.605,       725,
   47.6252,       672,
   47.6454,       748,
   47.6655,       737,
   47.6857,       704,
   47.7059,       748,
    47.726,       693,
   47.7462,       710,
   47.7664,       722,
   47.7865,       757,
   47.8067,       711,
   47.8269,       693,
    47.847,       721,
   47.8672,       726,
   47.8874,       697,
   47.9076,       718,
   47.9277,       699,
   47.9479,       704,
   47.9681,       705,
   47.9882,       715,
   48.0084,       729,
   48.0286,       707,
   48.0487,       727,
   48.0689,       691,
   48.0891,       752,
   48.1092,       708,
   48.1294,       713,
   48.1496,       701,
   48.1697,       725,
   48.1899,       711,
   48.2101,       737,
   48.2302,       684,
   48.2504,       705,
   48.2706,       718,
   48.2908,       756,
   48.3109,       702,
   48.3311,       738,
   48.3513,       738,
   48.3714,       676,
   48.3916,       748,
   48.4118,       722,
   48.4319,       708,
   48.4521,       756,
   48.4723,       768,
   48.4924,       765,
   48.5126,       756,
   48.5328,       733,
   48.5529,       753,
   48.5731,       739,
   48.5933,       767,
   48.6134,       747,
   48.6336,       716,
   48.6538,       789,
    48.674,       720,
   48.6941,       755,
   48.7143,       749,
   48.7345,       766,
   48.7546,       756,
   48.7748,       726,
    48.795,       725,
   48.8151,       747,
   48.8353,       806,
   48.8555,       800,
   48.8756,       817,
   48.8958,       780,
    48.916,       772,
   48.9361,       720,
   48.9563,       784,
   48.9765,       753,
   48.9967,       771,
   49.0168,       814,
    49.037,       811,
   49.0572,       795,
   49.0773,       737,
   49.0975,       811,
   49.1177,       785,
   49.1378,       808,
    49.158,       797,
   49.1782,       821,
   49.1983,       822,
   49.2185,       849,
   49.2387,       794,
   49.2588,       814,
    49.279,       799,
   49.2992,       842,
   49.3193,       823,
   49.3395,       829,
   49.3597,       898,
   49.3799,       861,
      49.4,       830,
   49.4202,       833,
   49.4404,       850,
   49.4605,       883,
   49.4807,       839,
   49.5009,       926,
    49.521,       875,
   49.5412,       881,
   49.5614,       924,
   49.5815,       888,
   49.6017,       957,
   49.6219,       920,
    49.642,       935,
   49.6622,       942,
   49.6824,      1009,
   49.7025,       924,
   49.7227,       994,
   49.7429,       966,
   49.7631,       986,
   49.7832,      1037,
   49.8034,      1085,
   49.8236,      1117,
   49.8437,      1137,
   49.8639,      1119,
   49.8841,      1118,
   49.9042,      1220,
   49.9244,      1262,
   49.9446,      1309,
   49.9647,      1364,
   49.9849,      1327,
   50.0051,      1479,
   50.0252,      1452,
   50.0454,      1491,
   50.0656,      1593,
   50.0858,      1642,
   50.1059,      1768,
   50.1261,      1887,
   50.1463,      2003,
   50.1664,      2013,
   50.1866,      2098,
   50.2068,      2299,
   50.2269,      2365,
   50.2471,      2632,
   50.2673,      2656,
   50.2874,      2758,
   50.3076,      3070,
   50.3278,      3156,
   50.3479,      3320,
   50.3681,      3443,
   50.3883,      3679,
   50.4084,      3744,
   50.4286,      3977,
   50.4488,      3969,
    50.469,      4007,
   50.4891,      4150,
   50.5093,      3980,
   50.5295,      4010,
   50.5496,      3935,
   50.5698,      3849,
     50.59,      3805,
   50.6101,      3584,
   50.6303,      3446,
   50.6505,      3385,
   50.6706,      3187,
   50.6908,      3092,
    50.711,      2915,
   50.7311,      2618,
   50.7513,      2496,
   50.7715,      2408,
   50.7917,      2314,
   50.8118,      2166,
    50.832,      2016,
   50.8522,      1924,
   50.8723,      1820,
   50.8925,      1716,
   50.9127,      1626,
   50.9328,      1577,
    50.953,      1510,
   50.9732,      1441,
   50.9933,      1404,
   51.0135,      1350,
   51.0337,      1294,
   51.0538,      1252,
    51.074,      1165,
   51.0942,      1192,
   51.1143,      1139,
   51.1345,      1104,
   51.1547,      1041,
   51.1749,      1041,
    51.195,       983,
   51.2152,      1010,
   51.2354,      1007,
   51.2555,       950,
   51.2757,       928,
   51.2959,       928,
    51.316,       909,
   51.3362,       877,
   51.3564,       895,
   51.3765,       842,
   51.3967,       839,
   51.4169,       888,
    51.437,       848,
   51.4572,       878,
   51.4774,       793,
   51.4975,       825,
   51.5177,       755,
   51.5379,       796,
   51.5581,       800,
   51.5782,       781,
   51.5984,       754,
   51.6186,       771,
   51.6387,       791,
   51.6589,       767,
   51.6791,       758,
   51.6992,       737,
   51.7194,       776,
   51.7396,       731,
   51.7597,       785,
   51.7799,       741,
   51.8001,       750,
   51.8202,       746,
   51.8404,       754,
   51.8606,       742,
   51.8808,       720,
   51.9009,       701,
   51.9211,       754,
   51.9413,       727,
   51.9614,       787,
   51.9816,       705,
   52.0018,       757,
   52.0219,       721,
   52.0421,       680,
   52.0623,       742,
   52.0824,       717,
   52.1026,       669,
   52.1228,       726,
   52.1429,       712,
   52.1631,       685,
   52.1833,       679,
   52.2034,       726,
   52.2236,       677,
   52.2438,       731,
    52.264,       697,
   52.2841,       701,
   52.3043,       685,
   52.3245,       741,
   52.3446,       686,
   52.3648,       631,
    52.385,       714,
   52.4051,       681,
   52.4253,       724,
   52.4455,       656,
   52.4656,       707,
   52.4858,       642,
    52.506,       685,
   52.5261,       701,
   52.5463,       717,
   52.5665,       680,
   52.5866,       711,
   52.6068,       652,
    52.627,       727,
   52.6472,       702,
   52.6673,       740,
   52.6875,       670,
   52.7077,       659,
   52.7278,       715,
    52.748,       692,
   52.7682,       646,
   52.7883,       674,
   52.8085,       683,
   52.8287,       688,
   52.8488,       678,
    52.869,       628,
   52.8892,       703,
   52.9093,       641,
   52.9295,       666,
   52.9497,       675,
   52.9699,       674,
     52.99,       682,
   53.0102,       709,
   53.0304,       654,
   53.0505,       682,
   53.0707,       662,
   53.0909,       708,
    53.111,       635,
   53.1312,       655,
   53.1514,       679,
   53.1715,       708,
   53.1917,       670,
   53.2119,       643,
    53.232,       659,
   53.2522,       682,
   53.2724,       710,
   53.2925,       630,
   53.3127,       693,
   53.3329,       664,
   53.3531,       645,
   53.3732,       696,
   53.3934,       681,
   53.4136,       686,
   53.4337,       654,
   53.4539,       650,
   53.4741,       673,
   53.4942,       627,
   53.5144,       670,
   53.5346,       680,
   53.5547,       688,
   53.5749,       689,
   53.5951,       681,
   53.6152,       694,
   53.6354,       672,
   53.6556,       656,
   53.6757,       622,
   53.6959,       693,
   53.7161,       664,
   53.7363,       644,
   53.7564,       657,
   53.7766,       670,
   53.7968,       634,
   53.8169,       681,
   53.8371,       623,
   53.8573,       615,
   53.8774,       656,
   53.8976,       630,
   53.9178,       682,
   53.9379,       652,
   53.9581,       671,
   53.9783,       629,
   53.9984,       679,
   54.0186,       659,
   54.0388,       636,
    54.059,       642,
   54.0791,       725,
   54.0993,       649,
   54.1195,       700,
   54.1396,       638,
   54.1598,       622,
     54.18,       653,
   54.2001,       615,
   54.2203,       657,
   54.2405,       676,
   54.2606,       622,
   54.2808,       650,
    54.301,       674,
   54.3211,       648,
   54.3413,       660,
   54.3615,       601,
   54.3816,       643,
   54.4018,       608,
    54.422,       686,
   54.4422,       659,
   54.4623,       698,
   54.4825,       656,
   54.5027,       650,
   54.5228,       647,
    54.543,       660,
   54.5632,       653,
   54.5833,       682,
   54.6035,       677,
   54.6237,       665,
   54.6438,       648,
    54.664,       639,
   54.6842,       676,
   54.7043,       670,
   54.7245,       706,
   54.7447,       660,
   54.7648,       640,
    54.785,       685,
   54.8052,       631,
   54.8254,       647,
   54.8455,       600,
   54.8657,       671,
   54.8859,       663,
    54.906,       651,
   54.9262,       667,
   54.9464,       643,
   54.9665,       633,
   54.9867,       651,
   55.0069,       645,
    55.027,       666,
   55.0472,       670,
   55.0674,       653,
   55.0875,       654,
   55.1077,       616,
   55.1279,       688,
   55.1481,       672,
   55.1682,       671,
   55.1884,       670,
   55.2086,       675,
   55.2287,       652,
   55.2489,       641,
   55.2691,       662,
   55.2892,       656,
   55.3094,       648,
   55.3296,       695,
   55.3497,       642,
   55.3699,       656,
   55.3901,       657,
   55.4102,       618,
   55.4304,       658,
   55.4506,       662,
   55.4707,       687,
   55.4909,       650,
   55.5111,       660,
   55.5313,       637,
   55.5514,       667,
   55.5716,       650,
   55.5918,       670,
   55.6119,       639,
   55.6321,       655,
   55.6523,       618,
   55.6724,       635,
   55.6926,       703,
   55.7128,       622,
   55.7329,       653,
   55.7531,       634,
   55.7733,       619,
   55.7934,       651,
   55.8136,       620,
   55.8338,       649,
    55.854,       640,
   55.8741,       684,
   55.8943,       648,
   55.9145,       637,
   55.9346,       676,
   55.9548,       654,
    55.975,       622,
   55.9951,       621,
   56.0153,       653,
   56.0355,       644,
   56.0556,       624,
   56.0758,       652,
    56.096,       612,
   56.1161,       666,
   56.1363,       625,
   56.1565,       663,
   56.1766,       635,
   56.1968,       618,
    56.217,       660,
   56.2372,       598,
   56.2573,       648,
   56.2775,       640,
   56.2977,       618,
   56.3178,       646,
    56.338,       657,
   56.3582,       660,
   56.3783,       642,
   56.3985,       642,
   56.4187,       629,
   56.4388,       647,
    56.459,       626,
   56.4792,       645,
   56.4993,       672,
   56.5195,       678,
   56.5397,       609,
   56.5598,       645,
     56.58,       626,
   56.6002,       637,
   56.6204,       612,
   56.6405,       666,
   56.6607,       651,
   56.6809,       673,
    56.701,       650,
   56.7212,       637,
   56.7414,       587,
   56.7615,       603,
   56.7817,       643,
   56.8019,       643,
    56.822,       618,
   56.8422,       681,
   56.8624,       648,
   56.8825,       654,
   56.9027,       653,
   56.9229,       608,
   56.9431,       629,
   56.9632,       654,
   56.9834,       632,
   57.0036,       611,
   57.0237,       586,
   57.0439,       638,
   57.0641,       584,
   57.0842,       584,
   57.1044,       598,
   57.1246,       590,
   57.1447,       660,
   57.1649,       630,
   57.1851,       627,
   57.2052,       623,
   57.2254,       637,
   57.2456,       653,
   57.2657,       625,
   57.2859,       669,
   57.3061,       650,
   57.3263,       638,
   57.3464,       610,
   57.3666,       641,
   57.3868,       644,
   57.4069,       658,
   57.4271,       651,
   57.4473,       639,
   57.4674,       604,
   57.4876,       605,
   57.5078,       601,
   57.5279,       624,
   57.5481,       606,
   57.5683,       637,
   57.5884,       677,
   57.6086,       640,
   57.6288,       659,
   57.6489,       616,
   57.6691,       628,
   57.6893,       625,
   57.7095,       644,
   57.7296,       615,
   57.7498,       630,
     57.77,       679,
   57.7901,       647,
   57.8103,       629,
   57.8305,       648,
   57.8506,       677,
   57.8708,       595,
    57.891,       607,
   57.9111,       622,
   57.9313,       610,
   57.9515,       608,
   57.9716,       645,
   57.9918,       645,
    58.012,       634,
   58.0322,       656,
   58.0523,       598,
   58.0725,       626,
   58.0927,       651,
   58.1128,       635,
    58.133,       668,
   58.1532,       657,
   58.1733,       650,
   58.1935,       601,
   58.2137,       628,
   58.2338,       613,
    58.254,       641,
   58.2742,       656,
   58.2943,       599,
   58.3145,       616,
   58.3347,       621,
   58.3548,       649,
    58.375,       621,
   58.3952,       597,
   58.4154,       659,
   58.4355,       605,
   58.4557,       670,
   58.4759,       612,
    58.496,       659,
   58.5162,       633,
   58.5364,       634,
   58.5565,       655,
   58.5767,       613,
   58.5969,       656,
    58.617,       646,
   58.6372,       579,
   58.6574,       632,
   58.6775,       617,
   58.6977,       631,
   58.7179,       607,
    58.738,       601,
   58.7582,       638,
   58.7784,       641,
   58.7986,       634,
   58.8187,       632,
   58.8389,       649,
   58.8591,       648,
   58.8792,       645,
   58.8994,       599,
   58.9196,       612,
   58.9397,       617,
   58.9599,       607,
   58.9801,       630,
   59.0002,       646,
   59.0204,       624,
   59.0406,       621,
   59.0607,       671,
   59.0809,       614,
   59.1011,       610,
   59.1213,       632,
   59.1414,       654,
   59.1616,       650,
   59.1818,       614,
   59.2019,       650,
   59.2221,       634,
   59.2423,       657,
   59.2624,       657,
   59.2826,       643,
   59.3028,       581,
   59.3229,       597,
   59.3431,       616,
   59.3633,       614,
   59.3834,       618,
   59.4036,       618,
   59.4238,       664,
   59.4439,       599,
   59.4641,       635,
   59.4843,       615,
   59.5045,       615,
   59.5246,       620,
   59.5448,       654,
    59.565,       644,
   59.5851,       585,
   59.6053,       613,
   59.6255,       611,
   59.6456,       648,
   59.6658,       633,
    59.686,       619,
   59.7061,       579,
   59.7263,       642,
   59.7465,       614,
   59.7666,       639,
   59.7868,       651,
    59.807,       635,
   59.8271,       674,
   59.8473,       613,
   59.8675,       632,
   59.8877,       617,
   59.9078,       628,
    59.928,       658,
   59.9482,       624,
   59.9683,       659,
   59.9885,       603,
   60.0087,       641,
   60.0288,       664,
    60.049,       632,
   60.0692,       634,
   60.0893,       655,
   60.1095,       595,
   60.1297,       644,
   60.1498,       629,
     60.17,       669,
   60.1902,       656,
   60.2104,       644,
   60.2305,       601,
   60.2507,       612,
   60.2709,       586,
    60.291,       659,
   60.3112,       658,
   60.3314,       636,
   60.3515,       636,
   60.3717,       619,
   60.3919,       643,
    60.412,       588,
   60.4322,       626,
   60.4524,       635,
   60.4725,       643,
   60.4927,       629,
   60.5129,       587,
    60.533,       572,
   60.5532,       604,
   60.5734,       594,
   60.5936,       619,
   60.6137,       646,
   60.6339,       639,
   60.6541,       591,
   60.6742,       636,
   60.6944,       634,
   60.7146,       601,
   60.7347,       609,
   60.7549,       648,
   60.7751,       587,
   60.7952,       604,
   60.8154,       633,
   60.8356,       594,
   60.8557,       600,
   60.8759,       633,
   60.8961,       624,
   60.9163,       592,
   60.9364,       625,
   60.9566,       619,
   60.9768,       608,
   60.9969,       586,
   61.0171,       603,
   61.0373,       649,
   61.0574,       592,
   61.0776,       653,
   61.0978,       590,
   61.1179,       607,
   61.1381,       624,
   61.1583,       609,
   61.1784,       618,
   61.1986,       612,
   61.2188,       614,
   61.2389,       662,
   61.2591,       594,
   61.2793,       585,
   61.2995,       622,
   61.3196,       613,
   61.3398,       625,
     61.36,       625,
   61.3801,       589,
   61.4003,       618,
   61.4205,       654,
   61.4406,       610,
   61.4608,       619,
    61.481,       571,
   61.5011,       610,
   61.5213,       668,
   61.5415,       654,
   61.5616,       630,
   61.5818,       626,
    61.602,       649,
   61.6221,       624,
   61.6423,       636,
   61.6625,       625,
   61.6827,       621,
   61.7028,       601,
    61.723,       647,
   61.7432,       622,
   61.7633,       593,
   61.7835,       656,
   61.8037,       612,
   61.8238,       635,
    61.844,       608,
   61.8642,       615,
   61.8843,       590,
   61.9045,       625,
   61.9247,       603,
   61.9448,       587,
    61.965,       604,
   61.9852,       574,
   62.0054,       643,
   62.0255,       619,
   62.0457,       632,
   62.0659,       587,
    62.086,       642,
   62.1062,       597,
   62.1264,       609,
   62.1465,       615,
   62.1667,       564,
   62.1869,       593,
    62.207,       612,
   62.2272,       657,
   62.2474,       613,
   62.2675,       606,
   62.2877,       621,
   62.3079,       614,
    62.328,       594,
   62.3482,       615,
   62.3684,       589,
   62.3886,       642,
   62.4087,       610,
   62.4289,       616,
   62.4491,       645,
   62.4692,       634,
   62.4894,       652,
   62.5096,       619,
   62.5297,       591,
   62.5499,       582,
   62.5701,       626,
   62.5902,       635,
   62.6104,       628,
   62.6306,       615,
   62.6507,       631,
   62.6709,       625,
   62.6911,       614,
   62.7112,       602,
   62.7314,       615,
   62.7516,       592,
   62.7718,       600,
   62.7919,       660,
   62.8121,       585,
   62.8323,       600,
   62.8524,       614,
   62.8726,       563,
   62.8928,       587,
   62.9129,       599,
   62.9331,       615,
   62.9533,       604,
   62.9734,       625,
   62.9936,       571,
   63.0138,       635,
   63.0339,       590,
   63.0541,       593,
   63.0743,       589,
   63.0945,       580,
   63.1146,       637,
   63.1348,       622,
    63.155,       611,
   63.1751,       645,
   63.1953,       602,
   63.2155,       602,
   63.2356,       589,
   63.2558,       603,
    63.276,       639,
   63.2961,       597,
   63.3163,       621,
   63.3365,       620,
   63.3566,       642,
   63.3768,       626,
    63.397,       641,
   63.4171,       597,
   63.4373,       607,
   63.4575,       598,
   63.4777,       631,
   63.4978,       630,
    63.518,       604,
   63.5382,       631,
   63.5583,       629,
   63.5785,       607,
   63.5987,       625,
   63.6188,       628,
    63.639,       626,
   63.6592,       592,
   63.6793,       593,
   63.6995,       584,
   63.7197,       629,
   63.7398,       648,
     63.76,       606,
   63.7802,       614,
   63.8003,       627,
   63.8205,       597,
   63.8407,       609,
   63.8609,       637,
    63.881,       584,
   63.9012,       627,
   63.9214,       593,
   63.9415,       613,
   63.9617,       643,
   63.9819,       601,
    64.002,       593,
   64.0222,       649,
   64.0424,       578,
   64.0625,       626,
   64.0827,       636,
   64.1029,       631,
    64.123,       617,
   64.1432,       601,
   64.1634,       610,
   64.1836,       636,
   64.2037,       578,
   64.2239,       626,
   64.2441,       629,
   64.2642,       620,
   64.2844,       608,
   64.3046,       601,
   64.3247,       592,
   64.3449,       594,
   64.3651,       566,
   64.3852,       650,
   64.4054,       635,
   64.4256,       600,
   64.4457,       621,
   64.4659,       574,
   64.4861,       631,
   64.5062,       649,
   64.5264,       635,
   64.5466,       651,
   64.5668,       583,
   64.5869,       642,
   64.6071,       588,
   64.6273,       629,
   64.6474,       623,
   64.6676,       601,
   64.6878,       624,
   64.7079,       620,
   64.7281,       624,
   64.7483,       602,
   64.7684,       601,
   64.7886,       603,
   64.8088,       622,
   64.8289,       652,
   64.8491,       604,
   64.8693,       617,
   64.8894,       620,
   64.9096,       618,
   64.9298,       619,
     64.95,       577,
   64.9701,       610,
   64.9903,       608,
   65.0105,       663,
   65.0306,       621,
   65.0508,       629,
    65.071,       610,
   65.0911,       571,
   65.1113,       534,
   65.1315,       603,
   65.1516,       599,
   65.1718,       576,
    65.192,       581,
   65.2121,       616,
   65.2323,       635,
   65.2525,       617,
   65.2727,       604,
   65.2928,       604,
    65.313,       596,
   65.3332,       611,
   65.3533,       631,
   65.3735,       624,
   65.3937,       644,
   65.4138,       617,
    65.434,       589,
   65.4542,       626,
   65.4743,       599,
   65.4945,       592,
   65.5147,       597,
   65.5348,       576,
    65.555,       619,
   65.5752,       613,
   65.5953,       597,
   65.6155,       577,
   65.6357,       614,
   65.6559,       592,
    65.676,       634,
   65.6962,       612,
   65.7164,       629,
   65.7365,       571,
   65.7567,       597,
   65.7769,       618,
    65.797,       592,
   65.8172,       616,
   65.8374,       586,
   65.8575,       612,
   65.8777,       607,
   65.8979,       649,
    65.918,       615,
   65.9382,       620,
   65.9584,       620,
   65.9786,       615,
   65.9987,       650,
   66.0189,       614,
   66.0391,       577,
   66.0592,       607,
   66.0794,       610,
   66.0996,       609,
   66.1197,       625,
   66.1399,       575,
   66.1601,       613,
   66.1802,       641,
   66.2004,       587,
   66.2206,       654,
   66.2407,       623,
   66.2609,       592,
   66.2811,       654,
   66.3012,       629,
   66.3214,       655,
   66.3416,       636,
   66.3618,       665,
   66.3819,       647,
   66.4021,       638,
   66.4223,       596,
   66.4424,       594,
   66.4626,       608,
   66.4828,       654,
   66.5029,       620,
   66.5231,       656,
   66.5433,       609,
   66.5634,       612,
   66.5836,       618,
   66.6038,       657,
   66.6239,       616,
   66.6441,       606,
   66.6643,       615,
   66.6844,       613,
   66.7046,       633,
   66.7248,       618,
    66.745,       617,
   66.7651,       590,
   66.7853,       616,
   66.8055,       615,
   66.8256,       631,
   66.8458,       643,
    66.866,       607,
   66.8861,       575,
   66.9063,       634,
   66.9265,       612,
   66.9466,       627,
   66.9668,       569,
    66.987,       623,
   67.0071,       578,
   67.0273,       618,
   67.0475,       621,
   67.0677,       625,
   67.0878,       624,
    67.108,       643,
   67.1282,       607,
   67.1483,       586,
   67.1685,       611,
   67.1887,       594,
   67.2088,       675,
    67.229,       621,
   67.2492,       661,
   67.2693,       587,
   67.2895,       618,
   67.3097,       591,
   67.3298,       598,
     67.35,       590,
   67.3702,       595,
   67.3903,       617,
   67.4105,       572,
   67.4307,       577,
   67.4509,       588,
    67.471,       579,
   67.4912,       610,
   67.5114,       638,
   67.5315,       582,
   67.5517,       642,
   67.5719,       625,
    67.592,       631,
   67.6122,       609,
   67.6324,       611,
   67.6525,       579,
   67.6727,       618,
   67.6929,       641,
    67.713,       666,
   67.7332,       646,
   67.7534,       599,
   67.7735,       567,
   67.7937,       620,
   67.8139,       578,
   67.8341,       621,
   67.8542,       587,
   67.8744,       579,
   67.8946,       616,
   67.9147,       574,
   67.9349,       603,
   67.9551,       630,
   67.9752,       623,
   67.9954,       620,
   68.0156,       640,
   68.0357,       618,
   68.0559,       650,
   68.0761,       636,
   68.0962,       622,
   68.1164,       635,
   68.1366,       579,
   68.1568,       599,
   68.1769,       572,
   68.1971,       646,
   68.2173,       615,
   68.2374,       596,
   68.2576,       614,
   68.2778,       616,
   68.2979,       617,
   68.3181,       608,
   68.3383,       606,
   68.3584,       609,
   68.3786,       612,
   68.3988,       586,
   68.4189,       620,
   68.4391,       656,
   68.4593,       596,
   68.4794,       606,
   68.4996,       620,
   68.5198,       609,
     68.54,       629,
   68.5601,       637,
   68.5803,       598,
   68.6005,       634,
   68.6206,       582,
   68.6408,       624,
    68.661,       601,
   68.6811,       602,
   68.7013,       620,
   68.7215,       603,
   68.7416,       617,
   68.7618,       628,
    68.782,       593,
   68.8021,       633,
   68.8223,       588,
   68.8425,       615,
   68.8626,       612,
   68.8828,       584,
    68.903,       610,
   68.9232,       587,
   68.9433,       617,
   68.9635,       627,
   68.9837,       606,
   69.0038,       577,
    69.024,       596,
   69.0442,       616,
   69.0643,       609,
   69.0845,       613,
   69.1047,       621,
   69.1248,       568,
    69.145,       605,
   69.1652,       576,
   69.1853,       651,
   69.2055,       598,
   69.2257,       614,
   69.2459,       593,
    69.266,       637,
   69.2862,       591,
   69.3064,       632,
   69.3265,       601,
   69.3467,       581,
   69.3669,       607,
    69.387,       588,
   69.4072,       599,
   69.4274,       638,
   69.4475,       593,
   69.4677,       565,
   69.4879,       594,
    69.508,       618,
   69.5282,       659,
   69.5484,       598,
   69.5685,       645,
   69.5887,       616,
   69.6089,       610,
   69.6291,       584,
   69.6492,       622,
   69.6694,       601,
   69.6896,       576,
   69.7097,       594,
   69.7299,       603,
   69.7501,       650,
   69.7702,       639,
   69.7904,       623,
   69.8106,       605,
   69.8307,       607,
   69.8509,       605,
   69.8711,       588,
   69.8912,       611,
   69.9114,       595,
   69.9316,       580,
   69.9517,       593,
   69.9719,       627,
   69.9921,       596,
   70.0123,       648,
   70.0324,       615,
   70.0526,       591,
   70.0728,       590,
   70.0929,       639,
   70.1131,       600,
   70.1333,       649,
   70.1534,       596,
   70.1736,       635,
   70.1938,       647,
   70.2139,       606,
   70.2341,       567,
   70.2543,       619,
   70.2744,       603,
   70.2946,       585,
   70.3148,       595,
    70.335,       598,
   70.3551,       595,
   70.3753,       655,
   70.3955,       606,
   70.4156,       646,
   70.4358,       590,
    70.456,       604,
   70.4761,       618,
   70.4963,       635,
   70.5165,       620,
   70.5366,       588,
   70.5568,       629,
    70.577,       583,
   70.5971,       602,
   70.6173,       577,
   70.6375,       607,
   70.6576,       612,
   70.6778,       618,
    70.698,       614,
   70.7182,       579,
   70.7383,       622,
   70.7585,       606,
   70.7787,       589,
   70.7988,       613,
    70.819,       658,
   70.8392,       617,
   70.8593,       617,
   70.8795,       631,
   70.8997,       576,
   70.9198,       609,
     70.94,       620,
   70.9602,       617,
   70.9803,       600,
   71.0005,       610,
   71.0207,       629,
   71.0409,       593,
    71.061,       553,
   71.0812,       620,
   71.1014,       600,
   71.1215,       609,
   71.1417,       619,
   71.1619,       619,
    71.182,       596,
   71.2022,       634,
   71.2224,       612,
   71.2425,       611,
   71.2627,       614,
   71.2829,       637,
    71.303,       592,
   71.3232,       657,
   71.3434,       642,
   71.3635,       607,
   71.3837,       632,
   71.4039,       651,
   71.4241,       599,
   71.4442,       597,
   71.4644,       583,
   71.4846,       594,
   71.5047,       597,
   71.5249,       609,
   71.5451,       623,
   71.5652,       629,
   71.5854,       607,
   71.6056,       597,
   71.6257,       584,
   71.6459,       616,
   71.6661,       586,
   71.6862,       576,
   71.7064,       644,
   71.7266,       682,
   71.7467,       599,
   71.7669,       668,
   71.7871,       655,
   71.8073,       571,
   71.8274,       607,
   71.8476,       594,
   71.8678,       633,
   71.8879,       624,
   71.9081,       603,
   71.9283,       630,
   71.9484,       628,
   71.9686,       598,
   71.9888,       659,
   72.0089,       661,
   72.0291,       625,
   72.0493,       583,
   72.0694,       590,
   72.0896,       660,
   72.1098,       589,
     72.13,       664,
   72.1501,       623,
   72.1703,       651,
   72.1905,       589,
   72.2106,       625,
   72.2308,       620,
    72.251,       603,
   72.2711,       632,
   72.2913,       620,
   72.3115,       602,
   72.3316,       624,
   72.3518,       634,
    72.372,       623,
   72.3921,       620,
   72.4123,       641,
   72.4325,       680,
   72.4526,       593,
   72.4728,       635,
    72.493,       635,
   72.5132,       620,
   72.5333,       589,
   72.5535,       657,
   72.5737,       596,
   72.5938,       639,
    72.614,       594,
   72.6342,       641,
   72.6543,       643,
   72.6745,       627,
   72.6947,       630,
   72.7148,       661,
    72.735,       635,
   72.7552,       633,
   72.7753,       655,
   72.7955,       632,
   72.8157,       627,
   72.8358,       611,
    72.856,       615,
   72.8762,       616,
   72.8964,       627,
   72.9165,       648,
   72.9367,       643,
   72.9569,       659,
    72.977,       648,
   72.9972,       627,
   73.0174,       621,
   73.0375,       641,
   73.0577,       693,
   73.0779,       627,
    73.098,       695,
   73.1182,       668,
   73.1384,       659,
   73.1585,       706,
   73.1787,       646,
   73.1989,       647,
   73.2191,       672,
   73.2392,       634,
   73.2594,       644,
   73.2796,       698,
   73.2997,       662,
   73.3199,       649,
   73.3401,       655,
   73.3602,       668,
   73.3804,       648,
   73.4006,       669,
   73.4207,       693,
   73.4409,       700,
   73.4611,       687,
   73.4812,       654,
   73.5014,       673,
   73.5216,       665,
   73.5417,       738,
   73.5619,       761,
   73.5821,       735,
   73.6023,       779,
   73.6224,       766,
   73.6426,       758,
   73.6628,       764,
   73.6829,       827,
   73.7031,       869,
   73.7233,       881,
   73.7434,       881,
   73.7636,       890,
   73.7838,       893,
   73.8039,       947,
   73.8241,       937,
   73.8443,      1024,
   73.8644,      1064,
   73.8846,       986,
   73.9048,      1184,
   73.9249,      1149,
   73.9451,      1213,
   73.9653,      1278,
   73.9855,      1335,
   74.0056,      1304,
   74.0258,      1417,
    74.046,      1436,
   74.0661,      1419,
   74.0863,      1446,
   74.1065,      1571,
   74.1266,      1598,
   74.1468,      1622,
    74.167,      1599,
   74.1871,      1629,
   74.2073,      1604,
   74.2275,      1619,
   74.2476,      1580,
   74.2678,      1513,
    74.288,      1504,
   74.3082,      1513,
   74.3283,      1469,
   74.3485,      1462,
   74.3687,      1419,
   74.3888,      1367,
    74.409,      1343,
   74.4292,      1283,
   74.4493,      1222,
   74.4695,      1199,
   74.4897,      1209,
   74.5098,      1083,
     74.53,      1089,
   74.5502,      1066,
   74.5703,      1026,
   74.5905,       962,
   74.6107,       926,
   74.6308,       939,
    74.651,       899,
   74.6712,       887,
   74.6914,       879,
   74.7115,       850,
   74.7317,       825,
   74.7519,       807,
    74.772,       765,
   74.7922,       793,
   74.8124,       761,
   74.8325,       738,
   74.8527,       771,
   74.8729,       789,
    74.893,       698,
   74.9132,       738,
   74.9334,       690,
   74.9535,       696,
   74.9737,       711,
   74.9939,       725,
    75.014,       695,
   75.0342,       734,
   75.0544,       716,
   75.0746,       657,
   75.0947,       665,
   75.1149,       606,
   75.1351,       654,
   75.1552,       648,
   75.1754,       644,
   75.1956,       663,
   75.2157,       642,
   75.2359,       693,
   75.2561,       662,
   75.2762,       665,
   75.2964,       684,
   75.3166,       639,
   75.3367,       653,
   75.3569,       707,
   75.3771,       617,
   75.3973,       609,
   75.4174,       649,
   75.4376,       617,
   75.4578,       666,
   75.4779,       684,
   75.4981,       618,
   75.5183,       617,
   75.5384,       654,
   75.5586,       622,
   75.5788,       609,
   75.5989,       634,
   75.6191,       655,
   75.6393,       609,
   75.6594,       636,
   75.6796,       636,
   75.6998,       630,
   75.7199,       650,
   75.7401,       590,
   75.7603,       649,
   75.7805,       657,
   75.8006,       602,
   75.8208,       595,
    75.841,       619,
   75.8611,       638,
   75.8813,       628,
   75.9015,       579,
   75.9216,       605,
   75.9418,       613,
    75.962,       645,
   75.9821,       620,
   76.0023,       607,
   76.0225,       603,
   76.0426,       659,
   76.0628,       621,
    76.083,       678,
   76.1032,       621,
   76.1233,       580,
   76.1435,       601,
   76.1637,       598,
   76.1838,       624,
    76.204,       645,
   76.2242,       650,
   76.2443,       624,
   76.2645,       624,
   76.2847,       627,
   76.3048,       646,
    76.325,       617,
   76.3452,       639,
   76.3653,       660,
   76.3855,       610,
   76.4057,       631,
   76.4258,       626,
    76.446,       608,
   76.4662,       634,
   76.4864,       601,
   76.5065,       634,
   76.5267,       624,
   76.5469,       611,
    76.567,       623,
   76.5872,       646,
   76.6074,       586,
   76.6275,       616,
   76.6477,       606,
   76.6679,       619,
    76.688,       631,
   76.7082,       624,
   76.7284,       636,
   76.7485,       620,
   76.7687,       587,
   76.7889,       637,
    76.809,       606,
   76.8292,       611,
   76.8494,       586,
   76.8696,       636,
   76.8897,       644,
   76.9099,       617,
   76.9301,       617,
   76.9502,       622,
   76.9704,       634,
   76.9906,       585,
   77.0107,       646,
   77.0309,       651,
   77.0511,       629,
   77.0712,       622,
   77.0914,       601,
   77.1116,       637,
   77.1317,       612,
   77.1519,       617,
   77.1721,       659,
   77.1923,       606,
   77.2124,       590,
   77.2326,       635,
   77.2528,       645,
   77.2729,       623,
   77.2931,       580,
   77.3133,       598,
   77.3334,       649,
   77.3536,       640,
   77.3738,       626,
   77.3939,       594,
   77.4141,       579,
   77.4343,       673,
   77.4544,       619,
   77.4746,       614,
   77.4948,       571,
   77.5149,       635,
   77.5351,       594,
   77.5553,       600,
   77.5755,       615,
   77.5956,       581,
   77.6158,       567,
    77.636,       619,
   77.6561,       604,
   77.6763,       620,
   77.6965,       603,
   77.7166,       602,
   77.7368,       638,
    77.757,       608,
   77.7771,       630,
   77.7973,       568,
   77.8175,       640,
   77.8376,       601,
   77.8578,       586,
    77.878,       613,
   77.8981,       565,
   77.9183,       679,
   77.9385,       596,
   77.9587,       591,
   77.9788,       636,
    77.999,       601,
