;RAW4.00
[RawHeader]
Date=11/26/2025
EstimatedTotalTime=426.6
FurtherDQLReading=0
HardwareIndicator=65519
MeasuredTotalTime=4.29492
MeasurementFlag=1
NumberOfMeasuredRanges=1
NumberOfRanges=1
Time=00:31:09

[VarInfo]
Type=USER
Flags=0
Value=Lab Manager

[VarInfo]
Type=SAMPLEID
Flags=0
Value=Commander Sample ID

[VarInfo]
Type=COMMENT
Flags=0
Value=

[VarInfo]
Type=UTF
Flags=0
Value=

[VarInfo]
Type=CREATOR
Flags=0
Value=V5Converter

[VarInfo]
Type=CREATOR_VERSION
Flags=0
Value=4.4.16.0

[HardwareConfiguration]
AbsorptionFactor=9999
ActivateAbsorber=0
Alpha1=1.5406
Alpha2=1.54439
AlphaAverage=1.54184
AlphaRatio=0.5
Analyzer=0
Anode=Cu
AntiScatteringSlit=9999
BeamOpticsFlags=0
Beta=1.39222
BetaRelativeIntensity=0
DeactivateAbsorber=0
DetectorSlit=9999
DivergenceSlit=9999
GoniometerControl=0
GoniometerDiameter=282
GoniometerModel=256
GoniometerStage=7
Monochromator=0
NearSampleSlit=9999
PrimarySollerSlit=9999
SampleChanger=0
SecondSollerSlit=9999
SynchronousAxis=0
ThinFilmAttachment=9999
WaveUnit=A

[RangeHeader]
ActuallyUsedLambda=1.54184
AdditionalDetectorMask=257
DataRecordLength=4
DelayTime=0
DisplayPlaneNumber=0
EstimatedScanTime=427
ExtraParametersMask=0
GeneratorCurrent=10
GeneratorVoltage=30
Increment=0.0201685
Increment3=0
NumberOfCompletedData=1885
NumberOfCounts=1
NumberOfDetectors=0
NumberOfDrives=3
NumberOfEncoderDrives=0
NumberOfMeasuredData=1885
NumberOfVaryingParameters=0
RangeStartTime=0
RotationSpeed=0
ScanMode=1
ScanType=Locked Coupled
SimulatedMeasConditions=0
SlitChangerIn=0
SmootingWidth=0
Start=40.0015
Steps=1885
SynchronousRotation=0
Time=33

[VarInfo]
Type=PSD_DISCRIM
Flags=0
Value=0.11;0.5

[VarInfo]
Type=OPTICS_V5
Flags=0
Value=H4sIAAAAAAAEAO1d63KjOhJ+Fda/zqmtBIPtXKaITzm2J+OaOHbFTnKmtrZcBORYZzC4AOey//d99hl2X2x1QViIS8C3JBN+TCaodWm6+2vUUkfS/nieW9IjcD3o2GcV5bBakYBtOCa0H84qS396oBxV/mhqF44NnTnwgdt25gvHBrbf0X1dQq1t78uzB88qM99ffJHlp6enw6faoeM+yGq1qsh/9i9HxgzM9QNoe75uG6AStjJfb1WRbqEH7y1wpc/BWWXFR0joAM9w4cInL/Bj4UHLsSW+3oXrLBc9NBZ6t3Pgojcb3P8FDH+o+7OzitwBj9AAMt+CrxUfl1Lblu55QRehTORzoM8XqLDt2L4ObeBy/coBc6yHluEvdYtxoR6o1ePT02O5h8TkLue4tzhrTW2EZGjqqBswQr3oFvyXjl+9OdUtD2hyGln7c259hcAyrwHqHhq4EDFpA/KbJ8lNjfKD1ToCFipvdm00JDA1OUbR6Btwou9Ab2HpL824AjQ5tXK8m+bF4OrHhPzodEft64TGrBVWDOsoPhpP1bBWhrxWvISy1r0hIUP+4r8skMLHrm78xG8sGODQhXPdfSHkZBMMakgD9GxISBvSeHkPOIFIQeOidilHx44baRI9r5mSRmyEDSxUYBJZ3blu/xy4JnCvAfYzAL0wsdX3b8s5NVnMwIfj6+8T9KPV/l7IxHm5Jhp5z0OvBh9BE+kGCS98DAk920dCZMIVSikeHA9SJulgmhwp1bAq2ZMXfZT4B2LSAxc+QFu3ogSlwl6OWi7Ssb/0moPwnSLFGmsYPPedJdIj0qJQrgWE0MJ5JCOdEXICmjFtjmnJUA7J0tRxpRHQLUBtYA3AytxYcejGiMm4JZa46kmmLG0LrhEWBa3xcus++8A2MZDfDYZpCWdMkQKtj5nwHfcltGVFk+OFGseMJxH2qHoYWND7cnJosmJN5ku1uCnh1+H65qyTKx3Y545jAR1NEG5s6BPpdiDSG56bXcI59IlYwiKvWdVk7knrgKm+tPxb3VoCboigVyQ96CPXTshnFewlKri/oQta5l9LD8GnYEuZYx67mbHTJoqe6ZblPK0cjVCOarZnwPgJzFUVVqC1ESPOHKsWvx33pNH5Zl7erhEyxkg2xVq1lr7TdoHug6HrLIDrvzAWEyiR9/eIRfdMhLKr5fweuE21rslCEdaQRS08UPF//xMyUSUc9B0TNG8Quqbos4xMnTwz90Y+PzEHluy7tuWt5HgP/ND5vNXOHBXjLvaN2aNbYuh5A79Evm3IJvErCL6JJ23LP418rD3OPSHRTOHDEjnla/gw85sIdabECnU0BoKwUKWYS+vrz5fAfvBnTbXRwKJhj2nOjrJISkNktZevObqMVm/q5DL4SnFwGS02cm5pFninPwKqkpa1mOmKYIUieVuWOJh2nCVqyWzxf//ehzWm2Nxw9uJBQ7dIeQJnTA/KYaNePXrNFtfo7ca2MPfItOjcf/WMZelYS+paugfVBtErK9H60Ibz5bx5oBwenx4fndaUWv3kSK0pjePu32vVE4S4oAZGIvklvWZQ4W0Rs4b0UpC0Rk/7QJiajTD10yOsXjvdJsRYdyXGNhLfFkDGuto1yh6Bqz+IoV6M/ulxppzUt4kz1l2Js43EtwWcsa52jLNz4OupIMPET46w2qmqqttD2Kq7EmEbiW9jhK262jHCrvGaRirECHVXGHuvCFutth02NsJWrKMSVWsKbh08xTrZCZK+OsbSG7gQ2D5ZHRSgJJK3tspG1g4H057tH9XfH6CibEVXr/OjKbkXhfRCBYDfqOeDOWLs0nmABl3VvJn0rm5bl73OpP2tN9TkFYkJfAye/WbPftQtiMQzg4uVjCJaIvW07+CFjI1lEf6uyTEWsnm67F2lsnIJbSARW0kbWtlk6OEgY+yhA20/e3B1k8GZLoaD0auqCHeKD6S58wgk35HmwJjpNrYKCTmTxd/SeKxl8/ienF2WXefzdFk9bOTm6N5Lz546UqiqhAVciZbr3FOQY3BWIVUkVBrdJr+ZtC6H31rRcrGRhEeyyEjkXXKxo0bYURPZUVPYUbPYUQuzEywL8PxEyoQBQloib5PW7UUWe0HrokySmCrg8D78PeybkkWGzrvjVjIvuH4+FiIbUQEDqBXeyxN46LJSkY3uZbffvRqnSMV2TCAFbaXVSDlkQmfBvNq4EkHsASVZZdetcW+QpTTSOp+8YlOLgL9pYnk4ToQicvl10J4MrpMZJONJkeZyfMe6Ed+xvgA2skTfcYU8TFacvPmcsQFLZ8dr7r82tXQiP3O7dSw/voYXlO4q5vl5u6WEjcypLxqFfRNqVSHyCL4FKaFHctihVBMCjFp1f7FErbF+MBEXRsEvZLo55TW19tJ1sT+LmlpQuitTm7f2YWpolHD6sQ1TaySFsh/E0uKy2LulDZ0nkgHOmxQp25WV3aUEnW+xcHMnRJr5lluqhymm+EkWW+4491hde7Ul3ssWbV9+7YtfJA0UTQyNGXBfyVbbPA8ud74bklUw60j9YgWfilQ/I4dzraYmBmuZ2QhiKJW9qxqLdLI3h6IxR/YytzAXT1vD42MIIXVJnC4nR8cylyaJ7OZRhxZeJcCPHu2eWH2ZQFkmUJYJlGUCZZlA+fE2xcsEyvezJV4mUP6aCCsTKN8TxsoEyl8VZ2UC5XvCWZlA+ashrEygfE8IKxMoywTKMoGyTKAsEyjLBMoygbJMoCwTKMsEyjKBskygLBMoywTKMoGyTKAsEyjLBMoygbJMoHzr+KNMoCwTKD9tAiXLkUS/iumT7KzT+Cmg4tm7GScqd+cL/4UkG4arGcVOT+72h4PRhP4scnoyGTg0xcTzk2U+BzLzcGMl7XBjde+HGw8WbefceR5MR45lATfhiGNKyDjkmKsg/WbotmTQQ8ElNJZEifQE7N/XgX9k+LhXSSBnuYaE6hunwkb7FPSZfOxxRGTIPPKL8PePe2KymphYK0bAR+scevtxXAin6Q2diJrmRGpv50S+wmdgEkNlcw/RmVjQz3IliCz1U2CAaRv4kdXICV5EJGb6ELHy5h6E61FQZYr/YA2o98gntQ/sOmq5XMfxeudlE7OmVzSsTJpYMhZe0hcRy1SR/jGf/zPDjH/DR/7fA2QfErQ9hAVgol98R9I5hWWaMq5mhBds4KeJUp0oaQYcIb5mwIVtN52ZmPP5qH/5US30lx930PRnYm4HLtvZktP8/WxBxzgL44DNsuvjPeVdZqh+7nWGuODWWWeI97KTtI5vABumgB1a+LnBszXslNBZz+i3gpzt3wSirjOzGenzhQXuZgBYY/QC/KUgIkkjH65UJ0ChmfamMj+F+lCxGJtFbxiJ1dIisfpGkRjhMR6HvT9h3thLD5hkeHHgLInKwm1g17oJl16CldWVYB+fXrg3mE494KdZfesZevz3Iay2B1ceYybnbh1ywVU1LSlVPTypn6qNRkNN8LvHjcOTRv24dqQqvK8VhNAM7mETbitc+w7DEUCRgJl9i2FYh7v9roNCXwNnMmzhLkORh4SYKLFGsfsMwz42ifVFRj70nYaF9FrM/4zwzYaj4jcbRuW787sNw+F2cbvhyRss3uHlOks3wMyxzMQtgMsX+xm8pBxzcfnj6s/ujy654bCjSsOZ7olX4OYEsRyOEwezQMpa3mDWKOO8X3k4Wj2jProvYAvX6KYzLmrzl7v28CTPUlxNiU9Yi8wL0ecUu0XdWrmWfniNJk2pxn6HJHazGl4xZ9PpjyfkXwFHw4ba6R6gstmscZebgP09bgIKCIswkLYN2N/zNmAmj6JSs3YC+59rJ1Cp53Ii1c+wFVhGSkUjpbRAqXF4dHrSUJRqPWmBqqEcHldP68dqfQeB0sontAHGieA9hcKI4+SmzLSadMAw70kjnLfkkW8dVkPLMIDnOS4E3hoRE+Mi7j2jlLwRUvyl1/ekrIcPHRqtqcpiLudicNWekB9FHA7lZ+eh0Ri4qHQnkdHp3mdFwxkkShPAfO0EGXBRYgTUqKlErdE1Wb0CGJXZGHSdNqGDKCsJ1TJnP6vqMuJUZpxuDuAUxgVFpsREEgUYMFu+rxszPNBZ5WDPRwluc5pzmitr4SQ+y+l5TBQhKMMCjfMcZLfIWj48ALPjYkzSv8ZE3eHvWs9sIu2S3oNHTCEVRwtgwGnwt6KsUpyC4BLvvcgEK46DYs5u+K03mpAfRZxdFKHbnGBVi0yvQisOP5lEYfRDEPwf22IqXU7pckqXI7qcECvsd+8VLsZPznhGTjB6jZVIzZz8ZA+dc9yig6ZEJvFifFQxXo8YAd9H0PIkfi6GHAXNPKxILbzB7vVR6AbplI5NtLGOuVT/5i2e1Rn4EFu+VFtBkewhB6uqmiyUa3yqI/WAkWUTj/6JxSqYYK6D6Pv/u9RXv2COAAA=

[PSD]
ActualTwoTheta=9999
FirstUsedChannel=0
FixedPSD=0
PSDOpening=4.99171
PSDType=5

[Drive]
DriveFlags=1
DriveName=2Theta
DriveNumber=2
DriveOffset=0
OffsetIndex=0
OscillationAmplitude=0
OscillationSpeed=0
StartPosition=40.0015

[Drive]
DriveFlags=1
DriveName=Theta
DriveNumber=1
DriveOffset=0
OffsetIndex=0
OscillationAmplitude=0
OscillationSpeed=0
StartPosition=20.0007

[Drive]
DriveFlags=1
DriveName=Phi
DriveNumber=3
DriveOffset=0
OffsetIndex=0
OscillationAmplitude=0
OscillationSpeed=0
StartPosition=0

[Data]
     Angle,       PSD,
   40.0015,       641,
   40.0217,       659,
   40.0418,       695,
    40.062,       615,
   40.0822,       649,
   40.1023,       682,
   40.1225,       657,
   40.1427,       621,
   40.1628,       659,
    40.183,       688,
   40.2032,       634,
   40.2233,       694,
   40.2435,       662,
   40.2637,       648,
   40.2838,       674,
    40.304,       664,
   40.3242,       663,
   40.3444,       641,
   40.3645,       648,
   40.3847,       625,
   40.4049,       637,
    40.425,       686,
   40.4452,       665,
   40.4654,       645,
   40.4855,       657,
   40.5057,       656,
   40.5259,       644,
    40.546,       682,
   40.5662,       679,
   40.5864,       667,
   40.6065,       607,
   40.6267,       672,
   40.6469,       637,
   40.6671,       642,
   40.6872,       624,
   40.7074,       665,
   40.7276,       675,
   40.7477,       619,
   40.7679,       684,
   40.7881,       611,
   40.8082,       710,
   40.8284,       657,
   40.8486,       682,
   40.8687,       672,
   40.8889,       689,
   40.9091,       727,
   40.9292,       666,
   40.9494,       661,
   40.9696,       625,
   40.9897,       659,
   41.0099,       719,
   41.0301,       697,
   41.0503,       734,
   41.0704,       650,
   41.0906,       661,
   41.1108,       652,
   41.1309,       712,
   41.1511,       737,
   41.1713,       723,
   41.1914,       707,
   41.2116,       693,
   41.2318,       721,
   41.2519,       657,
   41.2721,       738,
   41.2923,       698,
   41.3124,       694,
   41.3326,       711,
   41.3528,       665,
   41.3729,       696,
   41.3931,       733,
   41.4133,       715,
   41.4335,       666,
   41.4536,       694,
   41.4738,       753,
    41.494,       660,
   41.5141,       706,
   41.5343,       714,
   41.5545,       755,
   41.5746,       650,
   41.5948,       699,
    41.615,       771,
   41.6351,       764,
   41.6553,       710,
   41.6755,       698,
   41.6956,       703,
   41.7158,       707,
    41.736,       797,
   41.7562,       717,
   41.7763,       730,
   41.7965,       743,
   41.8167,       705,
   41.8368,       813,
    41.857,       758,
   41.8772,       756,
   41.8973,       749,
   41.9175,       819,
   41.9377,       838,
   41.9578,       828,
    41.978,       856,
   41.9982,       831,
   42.0183,       862,
   42.0385,       815,
   42.0587,       857,
   42.0788,       799,
    42.099,       825,
   42.1192,       891,
   42.1394,       914,
   42.1595,       818,
   42.1797,       877,
   42.1999,       894,
     42.22,       911,
   42.2402,       892,
   42.2604,       854,
   42.2805,       892,
   42.3007,       889,
   42.3209,       946,
    42.341,       909,
   42.3612,       952,
   42.3814,       902,
   42.4015,       954,
   42.4217,       923,
   42.4419,       965,
    42.462,       973,
   42.4822,      1031,
   42.5024,       981,
   42.5226,       971,
   42.5427,       955,
   42.5629,       994,
   42.5831,      1016,
   42.6032,      1002,
   42.6234,      1060,
   42.6436,      1051,
   42.6637,      1103,
   42.6839,      1062,
   42.7041,      1095,
   42.7242,      1087,
   42.7444,      1119,
   42.7646,      1193,
   42.7847,      1179,
   42.8049,      1261,
   42.8251,      1274,
   42.8453,      1322,
   42.8654,      1297,
   42.8856,      1422,
   42.9058,      1497,
   42.9259,      1491,
   42.9461,      1610,
   42.9663,      1676,
   42.9864,      1623,
   43.0066,      1917,
   43.0268,      1906,
   43.0469,      2076,
   43.0671,      2216,
   43.0873,      2403,
   43.1074,      2592,
   43.1276,      2621,
   43.1478,      2923,
   43.1679,      3213,
   43.1881,      3526,
   43.2083,      3961,
   43.2285,      4554,
   43.2486,      5072,
   43.2688,      5728,
    43.289,      6804,
   43.3091,      7790,
   43.3293,      9277,
   43.3495,     10594,
   43.3696,     12765,
   43.3898,     14638,
     43.41,     16573,
   43.4301,     18598,
   43.4503,     19741,
   43.4705,     19733,
   43.4906,     18874,
   43.5108,     18173,
    43.531,     17400,
   43.5511,     16373,
   43.5713,     15267,
   43.5915,     13586,
   43.6117,     12071,
   43.6318,     10318,
    43.652,      9153,
   43.6722,      7805,
   43.6923,      6852,
   43.7125,      5942,
   43.7327,      5287,
   43.7528,      4616,
    43.773,      4021,
   43.7932,      3611,
   43.8133,      3337,
   43.8335,      2997,
   43.8537,      2889,
   43.8738,      2565,
    43.894,      2393,
   43.9142,      2163,
   43.9344,      2048,
   43.9545,      2023,
   43.9747,      1912,
   43.9949,      1829,
    44.015,      1684,
   44.0352,      1613,
   44.0554,      1565,
   44.0755,      1395,
   44.0957,      1400,
   44.1159,      1410,
    44.136,      1401,
   44.1562,      1366,
   44.1764,      1290,
   44.1965,      1321,
   44.2167,      1254,
   44.2369,      1241,
    44.257,      1196,
   44.2772,      1125,
   44.2974,      1142,
   44.3176,      1101,
   44.3377,      1080,
   44.3579,      1131,
   44.3781,      1059,
   44.3982,      1040,
   44.4184,      1062,
   44.4386,      1058,
   44.4587,      1075,
   44.4789,      1022,
   44.4991,      1016,
   44.5192,      1024,
   44.5394,       981,
   44.5596,       991,
   44.5797,       987,
   44.5999,       940,
   44.6201,       944,
   44.6402,       919,
   44.6604,       965,
   44.6806,       944,
   44.7008,       931,
   44.7209,       867,
   44.7411,       839,
   44.7613,       937,
   44.7814,       931,
   44.8016,       867,
   44.8218,       865,
   44.8419,       853,
   44.8621,       879,
   44.8823,       909,
   44.9024,       898,
   44.9226,       835,
   44.9428,       838,
   44.9629,       852,
   44.9831,       860,
   45.0033,       868,
   45.0235,       856,
   45.0436,       858,
   45.0638,       847,
    45.084,       823,
   45.1041,       824,
   45.1243,       853,
   45.1445,       873,
   45.1646,       883,
   45.1848,       860,
    45.205,       803,
   45.2251,       812,
   45.2453,       838,
   45.2655,       823,
   45.2856,       803,
   45.3058,       852,
    45.326,       846,
   45.3461,       812,
   45.3663,       833,
   45.3865,       823,
   45.4067,       811,
   45.4268,       850,
    45.447,       815,
   45.4672,       783,
   45.4873,       866,
   45.5075,       801,
   45.5277,       790,
   45.5478,       762,
    45.568,       810,
   45.5882,       783,
   45.6083,       762,
   45.6285,       789,
   45.6487,       804,
   45.6688,       756,
    45.689,       725,
   45.7092,       761,
   45.7294,       800,
   45.7495,       824,
   45.7697,       783,
   45.7899,       781,
     45.81,       824,
   45.8302,       775,
   45.8504,       762,
   45.8705,       781,
   45.8907,       765,
   45.9109,       757,
    45.931,       771,
   45.9512,       839,
   45.9714,       829,
   45.9915,       752,
   46.0117,       802,
   46.0319,       746,
    46.052,       786,
   46.0722,       718,
   46.0924,       789,
   46.1126,       777,
   46.1327,       781,
   46.1529,       719,
   46.1731,       757,
   46.1932,       783,
   46.2134,       768,
   46.2336,       751,
   46.2537,       741,
   46.2739,       794,
   46.2941,       725,
   46.3142,       798,
   46.3344,       813,
   46.3546,       793,
   46.3747,       768,
   46.3949,       775,
   46.4151,       758,
   46.4352,       759,
   46.4554,       681,
   46.4756,       773,
   46.4958,       769,
   46.5159,       759,
   46.5361,       787,
   46.5563,       712,
   46.5764,       716,
   46.5966,       724,
   46.6168,       732,
   46.6369,       727,
   46.6571,       731,
   46.6773,       708,
   46.6974,       744,
   46.7176,       742,
   46.7378,       702,
   46.7579,       743,
   46.7781,       771,
   46.7983,       761,
   46.8185,       759,
   46.8386,       709,
   46.8588,       737,
    46.879,       734,
   46.8991,       754,
   46.9193,       761,
   46.9395,       693,
   46.9596,       772,
   46.9798,       727,
        47,       743,
   47.0201,       774,
   47.0403,       734,
   47.0605,       740,
   47.0806,       789,
   47.1008,       773,
    47.121,       731,
   47.1411,       708,
   47.1613,       776,
   47.1815,       733,
   47.2017,       757,
   47.2218,       736,
    47.242,       719,
   47.2622,       786,
   47.2823,       715,
   47.3025,       750,
   47.3227,       721,
   47.3428,       751,
    47.363,       713,
   47.3832,       808,
   47.4033,       747,
   47.4235,       740,
   47.4437,       756,
   47.4638,       761,
    47.484,       712,
   47.5042,       771,
   47.5243,       742,
   47.5445,       715,
   47.5647,       717,
   47.5849,       684,
    47.605,       725,
   47.6252,       763,
   47.6454,       784,
   47.6655,       730,
   47.6857,       734,
   47.7059,       728,
    47.726,       752,
   47.7462,       707,
   47.7664,       726,
   47.7865,       775,
   47.8067,       725,
   47.8269,       732,
    47.847,       711,
   47.8672,       736,
   47.8874,       778,
   47.9076,       708,
   47.9277,       761,
   47.9479,       705,
   47.9681,       731,
   47.9882,       768,
   48.0084,       733,
   48.0286,       768,
   48.0487,       756,
   48.0689,       779,
   48.0891,       746,
   48.1092,       753,
   48.1294,       730,
   48.1496,       774,
   48.1697,       741,
   48.1899,       729,
   48.2101,       761,
   48.2302,       778,
   48.2504,       716,
   48.2706,       727,
   48.2908,       808,
   48.3109,       790,
   48.3311,       797,
   48.3513,       705,
   48.3714,       759,
   48.3916,       775,
   48.4118,       754,
   48.4319,       780,
   48.4521,       784,
   48.4723,       778,
   48.4924,       784,
   48.5126,       779,
   48.5328,       761,
   48.5529,       732,
   48.5731,       773,
   48.5933,       802,
   48.6134,       750,
   48.6336,       724,
   48.6538,       745,
    48.674,       772,
   48.6941,       722,
   48.7143,       792,
   48.7345,       825,
   48.7546,       787,
   48.7748,       706,
    48.795,       822,
   48.8151,       788,
   48.8353,       783,
   48.8555,       755,
   48.8756,       731,
   48.8958,       740,
    48.916,       801,
   48.9361,       806,
   48.9563,       803,
   48.9765,       772,
   48.9967,       853,
   49.0168,       779,
    49.037,       775,
   49.0572,       811,
   49.0773,       817,
   49.0975,       835,
   49.1177,       813,
   49.1378,       840,
    49.158,       798,
   49.1782,       784,
   49.1983,       804,
   49.2185,       895,
   49.2387,       850,
   49.2588,       793,
    49.279,       851,
   49.2992,       894,
   49.3193,       897,
   49.3395,       866,
   49.3597,       866,
   49.3799,       870,
      49.4,       858,
   49.4202,       863,
   49.4404,       820,
   49.4605,       895,
   49.4807,       954,
   49.5009,       877,
    49.521,       864,
   49.5412,       931,
   49.5614,       978,
   49.5815,       885,
   49.6017,       909,
   49.6219,       940,
    49.642,       916,
   49.6622,       957,
   49.6824,       978,
   49.7025,      1021,
   49.7227,       988,
   49.7429,      1037,
   49.7631,      1025,
   49.7832,      1060,
   49.8034,      1091,
   49.8236,       976,
   49.8437,      1049,
   49.8639,      1113,
   49.8841,      1156,
   49.9042,      1147,
   49.9244,      1127,
   49.9446,      1197,
   49.9647,      1198,
   49.9849,      1265,
   50.0051,      1278,
   50.0252,      1379,
   50.0454,      1353,
   50.0656,      1458,
   50.0858,      1536,
   50.1059,      1582,
   50.1261,      1665,
   50.1463,      1748,
   50.1664,      1878,
   50.1866,      1894,
   50.2068,      1957,
   50.2269,      2057,
   50.2471,      2238,
   50.2673,      2338,
   50.2874,      2397,
   50.3076,      2675,
   50.3278,      2775,
   50.3479,      2953,
   50.3681,      3139,
   50.3883,      3136,
   50.4084,      3367,
   50.4286,      3617,
   50.4488,      3780,
    50.469,      3933,
   50.4891,      4184,
   50.5093,      4250,
   50.5295,      4440,
   50.5496,      4618,
   50.5698,      4743,
     50.59,      4872,
   50.6101,      4746,
   50.6303,      4661,
   50.6505,      4462,
   50.6706,      4516,
   50.6908,      4243,
    50.711,      4101,
   50.7311,      4057,
   50.7513,      3767,
   50.7715,      3490,
   50.7917,      3358,
   50.8118,      3245,
    50.832,      3054,
   50.8522,      2885,
   50.8723,      2755,
   50.8925,      2564,
   50.9127,      2394,
   50.9328,      2237,
    50.953,      2114,
   50.9732,      2016,
   50.9933,      1881,
   51.0135,      1855,
   51.0337,      1801,
   51.0538,      1696,
    51.074,      1484,
   51.0942,      1505,
   51.1143,      1444,
   51.1345,      1380,
   51.1547,      1309,
   51.1749,      1299,
    51.195,      1295,
   51.2152,      1213,
   51.2354,      1195,
   51.2555,      1138,
   51.2757,      1180,
   51.2959,      1082,
    51.316,       981,
   51.3362,      1029,
   51.3564,      1084,
   51.3765,      1035,
   51.3967,       955,
   51.4169,       955,
    51.437,       958,
   51.4572,       939,
   51.4774,       913,
   51.4975,       857,
   51.5177,       879,
   51.5379,       890,
   51.5581,       875,
   51.5782,       833,
   51.5984,       878,
   51.6186,       848,
   51.6387,       856,
   51.6589,       785,
   51.6791,       801,
   51.6992,       865,
   51.7194,       770,
   51.7396,       790,
   51.7597,       765,
   51.7799,       813,
   51.8001,       778,
   51.8202,       759,
   51.8404,       777,
   51.8606,       766,
   51.8808,       782,
   51.9009,       758,
   51.9211,       775,
   51.9413,       763,
   51.9614,       765,
   51.9816,       695,
   52.0018,       738,
   52.0219,       771,
   52.0421,       765,
   52.0623,       757,
   52.0824,       788,
   52.1026,       734,
   52.1228,       742,
   52.1429,       717,
   52.1631,       678,
   52.1833,       744,
   52.2034,       699,
   52.2236,       675,
   52.2438,       727,
    52.264,       741,
   52.2841,       740,
   52.3043,       676,
   52.3245,       680,
   52.3446,       710,
   52.3648,       714,
    52.385,       715,
   52.4051,       720,
   52.4253,       689,
   52.4455,       673,
   52.4656,       714,
   52.4858,       725,
    52.506,       751,
   52.5261,       677,
   52.5463,       719,
   52.5665,       652,
   52.5866,       648,
   52.6068,       776,
    52.627,       700,
   52.6472,       687,
   52.6673,       674,
   52.6875,       689,
   52.7077,       684,
   52.7278,       692,
    52.748,       669,
   52.7682,       682,
   52.7883,       732,
   52.8085,       729,
   52.8287,       705,
   52.8488,       666,
    52.869,       653,
   52.8892,       685,
   52.9093,       693,
   52.9295,       674,
   52.9497,       715,
   52.9699,       687,
     52.99,       735,
   53.0102,       679,
   53.0304,       695,
   53.0505,       722,
   53.0707,       683,
   53.0909,       713,
    53.111,       706,
   53.1312,       689,
   53.1514,       671,
   53.1715,       660,
   53.1917,       644,
   53.2119,       665,
    53.232,       685,
   53.2522,       666,
   53.2724,       709,
   53.2925,       673,
   53.3127,       664,
   53.3329,       659,
   53.3531,       677,
   53.3732,       678,
   53.3934,       675,
   53.4136,       702,
   53.4337,       690,
   53.4539,       657,
   53.4741,       659,
   53.4942,       684,
   53.5144,       638,
   53.5346,       658,
   53.5547,       675,
   53.5749,       720,
   53.5951,       685,
   53.6152,       655,
   53.6354,       680,
   53.6556,       672,
   53.6757,       671,
   53.6959,       719,
   53.7161,       667,
   53.7363,       692,
   53.7564,       681,
   53.7766,       669,
   53.7968,       688,
   53.8169,       666,
   53.8371,       680,
   53.8573,       700,
   53.8774,       658,
   53.8976,       667,
   53.9178,       650,
   53.9379,       648,
   53.9581,       667,
   53.9783,       656,
   53.9984,       654,
   54.0186,       651,
   54.0388,       662,
    54.059,       632,
   54.0791,       671,
   54.0993,       668,
   54.1195,       685,
   54.1396,       636,
   54.1598,       672,
     54.18,       727,
   54.2001,       655,
   54.2203,       670,
   54.2405,       683,
   54.2606,       705,
   54.2808,       701,
    54.301,       677,
   54.3211,       681,
   54.3413,       668,
   54.3615,       681,
   54.3816,       658,
   54.4018,       687,
    54.422,       652,
   54.4422,       637,
   54.4623,       673,
   54.4825,       635,
   54.5027,       708,
   54.5228,       683,
    54.543,       649,
   54.5632,       684,
   54.5833,       609,
   54.6035,       664,
   54.6237,       625,
   54.6438,       628,
    54.664,       680,
   54.6842,       647,
   54.7043,       600,
   54.7245,       667,
   54.7447,       643,
   54.7648,       694,
    54.785,       703,
   54.8052,       676,
   54.8254,       679,
   54.8455,       676,
   54.8657,       631,
   54.8859,       630,
    54.906,       654,
   54.9262,       709,
   54.9464,       660,
   54.9665,       633,
   54.9867,       664,
   55.0069,       689,
    55.027,       676,
   55.0472,       609,
   55.0674,       705,
   55.0875,       635,
   55.1077,       646,
   55.1279,       663,
   55.1481,       635,
   55.1682,       666,
   55.1884,       682,
   55.2086,       647,
   55.2287,       687,
   55.2489,       642,
   55.2691,       649,
   55.2892,       647,
   55.3094,       625,
   55.3296,       634,
   55.3497,       678,
   55.3699,       673,
   55.3901,       612,
   55.4102,       649,
   55.4304,       601,
   55.4506,       658,
   55.4707,       659,
   55.4909,       655,
   55.5111,       686,
   55.5313,       635,
   55.5514,       671,
   55.5716,       643,
   55.5918,       661,
   55.6119,       677,
   55.6321,       651,
   55.6523,       629,
   55.6724,       630,
   55.6926,       586,
   55.7128,       697,
   55.7329,       663,
   55.7531,       641,
   55.7733,       654,
   55.7934,       635,
   55.8136,       642,
   55.8338,       696,
    55.854,       626,
   55.8741,       645,
   55.8943,       598,
   55.9145,       654,
   55.9346,       663,
   55.9548,       630,
    55.975,       612,
   55.9951,       638,
   56.0153,       613,
   56.0355,       638,
   56.0556,       681,
   56.0758,       664,
    56.096,       630,
   56.1161,       609,
   56.1363,       637,
   56.1565,       623,
   56.1766,       671,
   56.1968,       600,
    56.217,       650,
   56.2372,       628,
   56.2573,       663,
   56.2775,       673,
   56.2977,       668,
   56.3178,       633,
    56.338,       653,
   56.3582,       636,
   56.3783,       642,
   56.3985,       645,
   56.4187,       669,
   56.4388,       675,
    56.459,       611,
   56.4792,       675,
   56.4993,       698,
   56.5195,       625,
   56.5397,       644,
   56.5598,       645,
     56.58,       661,
   56.6002,       658,
   56.6204,       588,
   56.6405,       620,
   56.6607,       603,
   56.6809,       670,
    56.701,       618,
   56.7212,       642,
   56.7414,       620,
   56.7615,       641,
   56.7817,       623,
   56.8019,       585,
    56.822,       605,
   56.8422,       633,
   56.8624,       642,
   56.8825,       605,
   56.9027,       646,
   56.9229,       632,
   56.9431,       674,
   56.9632,       639,
   56.9834,       643,
   57.0036,       645,
   57.0237,       652,
   57.0439,       644,
   57.0641,       647,
   57.0842,       645,
   57.1044,       653,
   57.1246,       645,
   57.1447,       668,
   57.1649,       646,
   57.1851,       629,
   57.2052,       609,
   57.2254,       625,
   57.2456,       640,
   57.2657,       603,
   57.2859,       659,
   57.3061,       615,
   57.3263,       608,
   57.3464,       631,
   57.3666,       623,
   57.3868,       629,
   57.4069,       651,
   57.4271,       629,
   57.4473,       641,
   57.4674,       599,
   57.4876,       658,
   57.5078,       629,
   57.5279,       633,
   57.5481,       632,
   57.5683,       648,
   57.5884,       662,
   57.6086,       636,
   57.6288,       603,
   57.6489,       640,
   57.6691,       613,
   57.6893,       656,
   57.7095,       649,
   57.7296,       668,
   57.7498,       608,
     57.77,       696,
   57.7901,       596,
   57.8103,       669,
   57.8305,       596,
   57.8506,       679,
   57.8708,       638,
    57.891,       691,
   57.9111,       632,
   57.9313,       632,
   57.9515,       607,
   57.9716,       630,
   57.9918,       607,
    58.012,       575,
   58.0322,       651,
   58.0523,       627,
   58.0725,       607,
   58.0927,       637,
   58.1128,       621,
    58.133,       636,
   58.1532,       649,
   58.1733,       654,
   58.1935,       611,
   58.2137,       667,
   58.2338,       650,
    58.254,       642,
   58.2742,       601,
   58.2943,       626,
   58.3145,       633,
   58.3347,       617,
   58.3548,       652,
    58.375,       642,
   58.3952,       665,
   58.4154,       629,
   58.4355,       646,
   58.4557,       607,
   58.4759,       625,
    58.496,       617,
   58.5162,       650,
   58.5364,       588,
   58.5565,       687,
   58.5767,       644,
   58.5969,       631,
    58.617,       645,
   58.6372,       638,
   58.6574,       633,
   58.6775,       655,
   58.6977,       616,
   58.7179,       613,
    58.738,       661,
   58.7582,       624,
   58.7784,       629,
   58.7986,       620,
   58.8187,       632,
   58.8389,       605,
   58.8591,       618,
   58.8792,       632,
   58.8994,       632,
   58.9196,       630,
   58.9397,       619,
   58.9599,       615,
   58.9801,       638,
   59.0002,       659,
   59.0204,       640,
   59.0406,       656,
   59.0607,       635,
   59.0809,       595,
   59.1011,       570,
   59.1213,       594,
   59.1414,       625,
   59.1616,       599,
   59.1818,       635,
   59.2019,       675,
   59.2221,       630,
   59.2423,       644,
   59.2624,       621,
   59.2826,       609,
   59.3028,       624,
   59.3229,       641,
   59.3431,       583,
   59.3633,       660,
   59.3834,       605,
   59.4036,       595,
   59.4238,       636,
   59.4439,       620,
   59.4641,       587,
   59.4843,       652,
   59.5045,       601,
   59.5246,       610,
   59.5448,       637,
    59.565,       674,
   59.5851,       666,
   59.6053,       594,
   59.6255,       635,
   59.6456,       633,
   59.6658,       649,
    59.686,       597,
   59.7061,       636,
   59.7263,       648,
   59.7465,       653,
   59.7666,       565,
   59.7868,       634,
    59.807,       632,
   59.8271,       644,
   59.8473,       619,
   59.8675,       637,
   59.8877,       581,
   59.9078,       657,
    59.928,       627,
   59.9482,       662,
   59.9683,       621,
   59.9885,       644,
   60.0087,       632,
   60.0288,       618,
    60.049,       630,
   60.0692,       651,
   60.0893,       618,
   60.1095,       653,
   60.1297,       630,
   60.1498,       628,
     60.17,       588,
   60.1902,       607,
   60.2104,       582,
   60.2305,       659,
   60.2507,       650,
   60.2709,       647,
    60.291,       647,
   60.3112,       665,
   60.3314,       611,
   60.3515,       577,
   60.3717,       598,
   60.3919,       619,
    60.412,       592,
   60.4322,       629,
   60.4524,       620,
   60.4725,       654,
   60.4927,       605,
   60.5129,       615,
    60.533,       587,
   60.5532,       624,
   60.5734,       650,
   60.5936,       588,
   60.6137,       626,
   60.6339,       609,
   60.6541,       627,
   60.6742,       659,
   60.6944,       585,
   60.7146,       670,
   60.7347,       640,
   60.7549,       620,
   60.7751,       649,
   60.7952,       568,
   60.8154,       624,
   60.8356,       609,
   60.8557,       641,
   60.8759,       594,
   60.8961,       574,
   60.9163,       615,
   60.9364,       601,
   60.9566,       643,
   60.9768,       603,
   60.9969,       601,
   61.0171,       638,
   61.0373,       647,
   61.0574,       602,
   61.0776,       625,
   61.0978,       610,
   61.1179,       629,
   61.1381,       621,
   61.1583,       622,
   61.1784,       643,
   61.1986,       640,
   61.2188,       611,
   61.2389,       637,
   61.2591,       621,
   61.2793,       627,
   61.2995,       670,
   61.3196,       620,
   61.3398,       612,
     61.36,       634,
   61.3801,       579,
   61.4003,       584,
   61.4205,       570,
   61.4406,       596,
   61.4608,       640,
    61.481,       634,
   61.5011,       620,
   61.5213,       603,
   61.5415,       640,
   61.5616,       605,
   61.5818,       628,
    61.602,       620,
   61.6221,       603,
   61.6423,       634,
   61.6625,       612,
   61.6827,       652,
   61.7028,       592,
    61.723,       625,
   61.7432,       652,
   61.7633,       640,
   61.7835,       618,
   61.8037,       633,
   61.8238,       604,
    61.844,       633,
   61.8642,       627,
   61.8843,       611,
   61.9045,       665,
   61.9247,       596,
   61.9448,       605,
    61.965,       610,
   61.9852,       601,
   62.0054,       617,
   62.0255,       644,
   62.0457,       593,
   62.0659,       589,
    62.086,       597,
   62.1062,       620,
   62.1264,       621,
   62.1465,       597,
   62.1667,       573,
   62.1869,       640,
    62.207,       617,
   62.2272,       600,
   62.2474,       630,
   62.2675,       652,
   62.2877,       632,
   62.3079,       643,
    62.328,       579,
   62.3482,       592,
   62.3684,       591,
   62.3886,       585,
   62.4087,       585,
   62.4289,       602,
   62.4491,       636,
   62.4692,       619,
   62.4894,       655,
   62.5096,       618,
   62.5297,       641,
   62.5499,       651,
   62.5701,       598,
   62.5902,       609,
   62.6104,       606,
   62.6306,       644,
   62.6507,       633,
   62.6709,       611,
   62.6911,       636,
   62.7112,       618,
   62.7314,       613,
   62.7516,       637,
   62.7718,       575,
   62.7919,       619,
   62.8121,       634,
   62.8323,       568,
   62.8524,       631,
   62.8726,       597,
   62.8928,       624,
   62.9129,       606,
   62.9331,       637,
   62.9533,       633,
   62.9734,       613,
   62.9936,       635,
   63.0138,       631,
   63.0339,       623,
   63.0541,       645,
   63.0743,       664,
   63.0945,       612,
   63.1146,       630,
   63.1348,       650,
    63.155,       599,
   63.1751,       678,
   63.1953,       620,
   63.2155,       636,
   63.2356,       629,
   63.2558,       625,
    63.276,       597,
   63.2961,       608,
   63.3163,       604,
   63.3365,       601,
   63.3566,       608,
   63.3768,       667,
    63.397,       635,
   63.4171,       621,
   63.4373,       641,
   63.4575,       597,
   63.4777,       656,
   63.4978,       598,
    63.518,       644,
   63.5382,       610,
   63.5583,       626,
   63.5785,       627,
   63.5987,       685,
   63.6188,       619,
    63.639,       630,
   63.6592,       607,
   63.6793,       608,
   63.6995,       634,
   63.7197,       613,
   63.7398,       625,
     63.76,       664,
   63.7802,       626,
   63.8003,       595,
   63.8205,       620,
   63.8407,       581,
   63.8609,       607,
    63.881,       619,
   63.9012,       632,
   63.9214,       635,
   63.9415,       654,
   63.9617,       585,
   63.9819,       608,
    64.002,       611,
   64.0222,       603,
   64.0424,       619,
   64.0625,       544,
   64.0827,       618,
   64.1029,       620,
    64.123,       628,
   64.1432,       634,
   64.1634,       611,
   64.1836,       596,
   64.2037,       607,
   64.2239,       576,
   64.2441,       602,
   64.2642,       597,
   64.2844,       587,
   64.3046,       605,
   64.3247,       644,
   64.3449,       615,
   64.3651,       579,
   64.3852,       615,
   64.4054,       601,
   64.4256,       600,
   64.4457,       643,
   64.4659,       662,
   64.4861,       616,
   64.5062,       594,
   64.5264,       602,
   64.5466,       642,
   64.5668,       586,
   64.5869,       611,
   64.6071,       593,
   64.6273,       594,
   64.6474,       602,
   64.6676,       629,
   64.6878,       629,
   64.7079,       589,
   64.7281,       587,
   64.7483,       628,
   64.7684,       630,
   64.7886,       580,
   64.8088,       656,
   64.8289,       661,
   64.8491,       590,
   64.8693,       633,
   64.8894,       625,
   64.9096,       611,
   64.9298,       582,
     64.95,       619,
   64.9701,       595,
   64.9903,       664,
   65.0105,       586,
   65.0306,       627,
   65.0508,       635,
    65.071,       626,
   65.0911,       593,
   65.1113,       584,
   65.1315,       659,
   65.1516,       601,
   65.1718,       607,
    65.192,       640,
   65.2121,       616,
   65.2323,       576,
   65.2525,       601,
   65.2727,       602,
   65.2928,       629,
    65.313,       604,
   65.3332,       580,
   65.3533,       633,
   65.3735,       605,
   65.3937,       596,
   65.4138,       638,
    65.434,       607,
   65.4542,       599,
   65.4743,       598,
   65.4945,       597,
   65.5147,       586,
   65.5348,       626,
    65.555,       638,
   65.5752,       610,
   65.5953,       646,
   65.6155,       646,
   65.6357,       663,
   65.6559,       645,
    65.676,       646,
   65.6962,       579,
   65.7164,       636,
   65.7365,       638,
   65.7567,       626,
   65.7769,       575,
    65.797,       606,
   65.8172,       581,
   65.8374,       622,
   65.8575,       626,
   65.8777,       624,
   65.8979,       577,
    65.918,       624,
   65.9382,       641,
   65.9584,       635,
   65.9786,       600,
   65.9987,       629,
   66.0189,       584,
   66.0391,       615,
   66.0592,       655,
   66.0794,       646,
   66.0996,       654,
   66.1197,       633,
   66.1399,       620,
   66.1601,       596,
   66.1802,       643,
   66.2004,       613,
   66.2206,       641,
   66.2407,       600,
   66.2609,       577,
   66.2811,       637,
   66.3012,       637,
   66.3214,       657,
   66.3416,       615,
   66.3618,       660,
   66.3819,       616,
   66.4021,       618,
   66.4223,       601,
   66.4424,       653,
   66.4626,       621,
   66.4828,       634,
   66.5029,       587,
   66.5231,       654,
   66.5433,       594,
   66.5634,       633,
   66.5836,       609,
   66.6038,       610,
   66.6239,       619,
   66.6441,       612,
   66.6643,       608,
   66.6844,       569,
   66.7046,       599,
   66.7248,       601,
    66.745,       633,
   66.7651,       648,
   66.7853,       614,
   66.8055,       644,
   66.8256,       628,
   66.8458,       647,
    66.866,       656,
   66.8861,       649,
   66.9063,       644,
   66.9265,       609,
   66.9466,       621,
   66.9668,       636,
    66.987,       587,
   67.0071,       598,
   67.0273,       605,
   67.0475,       622,
   67.0677,       629,
   67.0878,       603,
    67.108,       577,
   67.1282,       629,
   67.1483,       627,
   67.1685,       630,
   67.1887,       634,
   67.2088,       616,
    67.229,       633,
   67.2492,       613,
   67.2693,       628,
   67.2895,       620,
   67.3097,       605,
   67.3298,       602,
     67.35,       679,
   67.3702,       591,
   67.3903,       601,
   67.4105,       624,
   67.4307,       630,
   67.4509,       579,
    67.471,       624,
   67.4912,       627,
   67.5114,       605,
   67.5315,       594,
   67.5517,       640,
   67.5719,       612,
    67.592,       632,
   67.6122,       635,
   67.6324,       611,
   67.6525,       626,
   67.6727,       616,
   67.6929,       633,
    67.713,       649,
   67.7332,       558,
   67.7534,       577,
   67.7735,       607,
   67.7937,       638,
   67.8139,       635,
   67.8341,       618,
   67.8542,       611,
   67.8744,       626,
   67.8946,       668,
   67.9147,       600,
   67.9349,       611,
   67.9551,       619,
   67.9752,       593,
   67.9954,       628,
   68.0156,       611,
   68.0357,       579,
   68.0559,       580,
   68.0761,       640,
   68.0962,       619,
   68.1164,       600,
   68.1366,       604,
   68.1568,       598,
   68.1769,       649,
   68.1971,       602,
   68.2173,       597,
   68.2374,       671,
   68.2576,       568,
   68.2778,       604,
   68.2979,       588,
   68.3181,       600,
   68.3383,       596,
   68.3584,       577,
   68.3786,       584,
   68.3988,       666,
   68.4189,       627,
   68.4391,       616,
   68.4593,       573,
   68.4794,       626,
   68.4996,       591,
   68.5198,       631,
     68.54,       630,
   68.5601,       623,
   68.5803,       621,
   68.6005,       628,
   68.6206,       633,
   68.6408,       651,
    68.661,       586,
   68.6811,       630,
   68.7013,       604,
   68.7215,       615,
   68.7416,       617,
   68.7618,       630,
    68.782,       621,
   68.8021,       614,
   68.8223,       620,
   68.8425,       630,
   68.8626,       620,
   68.8828,       619,
    68.903,       619,
   68.9232,       606,
   68.9433,       570,
   68.9635,       622,
   68.9837,       641,
   69.0038,       626,
    69.024,       607,
   69.0442,       633,
   69.0643,       623,
   69.0845,       589,
   69.1047,       605,
   69.1248,       662,
    69.145,       581,
   69.1652,       624,
   69.1853,       668,
   69.2055,       619,
   69.2257,       597,
   69.2459,       662,
    69.266,       611,
   69.2862,       662,
   69.3064,       568,
   69.3265,       637,
   69.3467,       611,
   69.3669,       620,
    69.387,       594,
   69.4072,       601,
   69.4274,       572,
   69.4475,       595,
   69.4677,       656,
   69.4879,       619,
    69.508,       651,
   69.5282,       660,
   69.5484,       655,
   69.5685,       588,
   69.5887,       574,
   69.6089,       628,
   69.6291,       647,
   69.6492,       629,
   69.6694,       636,
   69.6896,       616,
   69.7097,       632,
   69.7299,       643,
   69.7501,       598,
   69.7702,       631,
   69.7904,       634,
   69.8106,       622,
   69.8307,       607,
   69.8509,       582,
   69.8711,       580,
   69.8912,       639,
   69.9114,       615,
   69.9316,       584,
   69.9517,       612,
   69.9719,       622,
   69.9921,       630,
   70.0123,       593,
   70.0324,       550,
   70.0526,       597,
   70.0728,       636,
   70.0929,       603,
   70.1131,       595,
   70.1333,       612,
   70.1534,       619,
   70.1736,       617,
   70.1938,       614,
   70.2139,       560,
   70.2341,       592,
   70.2543,       573,
   70.2744,       583,
   70.2946,       585,
   70.3148,       612,
    70.335,       650,
   70.3551,       584,
   70.3753,       640,
   70.3955,       656,
   70.4156,       603,
   70.4358,       652,
    70.456,       593,
   70.4761,       645,
   70.4963,       633,
   70.5165,       586,
   70.5366,       644,
   70.5568,       624,
    70.577,       610,
   70.5971,       588,
   70.6173,       601,
   70.6375,       607,
   70.6576,       648,
   70.6778,       625,
    70.698,       600,
   70.7182,       600,
   70.7383,       614,
   70.7585,       591,
   70.7787,       597,
   70.7988,       608,
    70.819,       624,
   70.8392,       585,
   70.8593,       645,
   70.8795,       628,
   70.8997,       609,
   70.9198,       631,
     70.94,       619,
   70.9602,       629,
   70.9803,       615,
   71.0005,       626,
   71.0207,       595,
   71.0409,       640,
    71.061,       615,
   71.0812,       561,
   71.1014,       618,
   71.1215,       625,
   71.1417,       620,
   71.1619,       594,
    71.182,       561,
   71.2022,       620,
   71.2224,       612,
   71.2425,       572,
   71.2627,       591,
   71.2829,       624,
    71.303,       544,
   71.3232,       662,
   71.3434,       593,
   71.3635,       643,
   71.3837,       602,
   71.4039,       694,
   71.4241,       592,
   71.4442,       607,
   71.4644,       587,
   71.4846,       644,
   71.5047,       632,
   71.5249,       557,
   71.5451,       573,
   71.5652,       621,
   71.5854,       623,
   71.6056,       661,
   71.6257,       593,
   71.6459,       625,
   71.6661,       625,
   71.6862,       616,
   71.7064,       624,
   71.7266,       608,
   71.7467,       625,
   71.7669,       613,
   71.7871,       646,
   71.8073,       664,
   71.8274,       596,
   71.8476,       632,
   71.8678,       634,
   71.8879,       659,
   71.9081,       595,
   71.9283,       662,
   71.9484,       579,
   71.9686,       588,
   71.9888,       640,
   72.0089,       680,
   72.0291,       647,
   72.0493,       632,
   72.0694,       603,
   72.0896,       595,
   72.1098,       639,
     72.13,       612,
   72.1501,       609,
   72.1703,       632,
   72.1905,       617,
   72.2106,       679,
   72.2308,       607,
    72.251,       632,
   72.2711,       589,
   72.2913,       615,
   72.3115,       618,
   72.3316,       633,
   72.3518,       588,
    72.372,       583,
   72.3921,       630,
   72.4123,       602,
   72.4325,       658,
   72.4526,       602,
   72.4728,       639,
    72.493,       607,
   72.5132,       629,
   72.5333,       589,
   72.5535,       652,
   72.5737,       657,
   72.5938,       632,
    72.614,       605,
   72.6342,       621,
   72.6543,       615,
   72.6745,       631,
   72.6947,       636,
   72.7148,       621,
    72.735,       611,
   72.7552,       645,
   72.7753,       620,
   72.7955,       620,
   72.8157,       643,
   72.8358,       574,
    72.856,       636,
   72.8762,       602,
   72.8964,       626,
   72.9165,       643,
   72.9367,       637,
   72.9569,       672,
    72.977,       613,
   72.9972,       646,
   73.0174,       658,
   73.0375,       641,
   73.0577,       620,
   73.0779,       663,
    73.098,       609,
   73.1182,       643,
   73.1384,       610,
   73.1585,       664,
   73.1787,       648,
   73.1989,       663,
   73.2191,       656,
   73.2392,       679,
   73.2594,       634,
   73.2796,       664,
   73.2997,       654,
   73.3199,       596,
   73.3401,       647,
   73.3602,       653,
   73.3804,       715,
   73.4006,       632,
   73.4207,       677,
   73.4409,       698,
   73.4611,       684,
   73.4812,       684,
   73.5014,       734,
   73.5216,       682,
   73.5417,       703,
   73.5619,       734,
   73.5821,       675,
   73.6023,       691,
   73.6224,       745,
   73.6426,       758,
   73.6628,       751,
   73.6829,       727,
   73.7031,       797,
   73.7233,       754,
   73.7434,       767,
   73.7636,       805,
   73.7838,       833,
   73.8039,       843,
   73.8241,       794,
   73.8443,       860,
   73.8644,       923,
   73.8846,       935,
   73.9048,       941,
   73.9249,       966,
   73.9451,       991,
   73.9653,      1050,
   73.9855,      1067,
   74.0056,      1038,
   74.0258,      1151,
    74.046,      1116,
   74.0661,      1162,
   74.0863,      1206,
   74.1065,      1255,
   74.1266,      1356,
   74.1468,      1360,
    74.167,      1416,
   74.1871,      1488,
   74.2073,      1656,
   74.2275,      1732,
   74.2476,      1716,
   74.2678,      1640,
    74.288,      1531,
   74.3082,      1505,
   74.3283,      1380,
   74.3485,      1350,
   74.3687,      1324,
   74.3888,      1361,
    74.409,      1429,
   74.4292,      1463,
   74.4493,      1421,
   74.4695,      1403,
   74.4897,      1271,
   74.5098,      1202,
     74.53,      1186,
   74.5502,      1166,
   74.5703,      1034,
   74.5905,      1061,
   74.6107,      1015,
   74.6308,      1009,
    74.651,       948,
   74.6712,       962,
   74.6914,       942,
   74.7115,       905,
   74.7317,       884,
   74.7519,       896,
    74.772,       882,
   74.7922,       816,
   74.8124,       824,
   74.8325,       759,
   74.8527,       778,
   74.8729,       761,
    74.893,       746,
   74.9132,       789,
   74.9334,       730,
   74.9535,       733,
   74.9737,       747,
   74.9939,       723,
    75.014,       711,
   75.0342,       743,
   75.0544,       731,
   75.0746,       664,
   75.0947,       682,
   75.1149,       671,
   75.1351,       692,
   75.1552,       676,
   75.1754,       687,
   75.1956,       654,
   75.2157,       673,
   75.2359,       686,
   75.2561,       666,
   75.2762,       627,
   75.2964,       730,
   75.3166,       665,
   75.3367,       675,
   75.3569,       699,
   75.3771,       652,
   75.3973,       606,
   75.4174,       608,
   75.4376,       647,
   75.4578,       652,
   75.4779,       654,
   75.4981,       595,
   75.5183,       648,
   75.5384,       627,
   75.5586,       659,
   75.5788,       606,
   75.5989,       649,
   75.6191,       609,
   75.6393,       606,
   75.6594,       609,
   75.6796,       631,
   75.6998,       664,
   75.7199,       601,
   75.7401,       645,
   75.7603,       682,
   75.7805,       642,
   75.8006,       645,
   75.8208,       676,
    75.841,       639,
   75.8611,       627,
   75.8813,       666,
   75.9015,       616,
   75.9216,       642,
   75.9418,       654,
    75.962,       636,
   75.9821,       636,
   76.0023,       613,
   76.0225,       620,
   76.0426,       599,
   76.0628,       570,
    76.083,       655,
   76.1032,       630,
   76.1233,       604,
   76.1435,       631,
   76.1637,       631,
   76.1838,       628,
    76.204,       677,
   76.2242,       640,
   76.2443,       631,
   76.2645,       632,
   76.2847,       635,
   76.3048,       633,
    76.325,       639,
   76.3452,       608,
   76.3653,       680,
   76.3855,       637,
   76.4057,       591,
   76.4258,       612,
    76.446,       617,
   76.4662,       604,
   76.4864,       597,
   76.5065,       629,
   76.5267,       632,
   76.5469,       632,
    76.567,       592,
   76.5872,       590,
   76.6074,       630,
   76.6275,       640,
   76.6477,       588,
   76.6679,       566,
    76.688,       650,
   76.7082,       587,
   76.7284,       652,
   76.7485,       635,
   76.7687,       589,
   76.7889,       639,
    76.809,       635,
   76.8292,       625,
   76.8494,       587,
   76.8696,       653,
   76.8897,       640,
   76.9099,       623,
   76.9301,       625,
   76.9502,       648,
   76.9704,       616,
   76.9906,       641,
   77.0107,       634,
   77.0309,       627,
   77.0511,       611,
   77.0712,       650,
   77.0914,       585,
   77.1116,       596,
   77.1317,       608,
   77.1519,       618,
   77.1721,       656,
   77.1923,       652,
   77.2124,       614,
   77.2326,       631,
   77.2528,       628,
   77.2729,       632,
   77.2931,       646,
   77.3133,       634,
   77.3334,       600,
   77.3536,       652,
   77.3738,       597,
   77.3939,       570,
   77.4141,       615,
   77.4343,       654,
   77.4544,       683,
   77.4746,       651,
   77.4948,       617,
   77.5149,       596,
   77.5351,       611,
   77.5553,       611,
   77.5755,       624,
   77.5956,       583,
   77.6158,       651,
    77.636,       638,
   77.6561,       620,
   77.6763,       600,
   77.6965,       673,
   77.7166,       594,
   77.7368,       628,
    77.757,       643,
   77.7771,       613,
   77.7973,       609,
   77.8175,       623,
   77.8376,       659,
   77.8578,       609,
    77.878,       589,
   77.8981,       639,
   77.9183,       596,
   77.9385,       639,
   77.9587,       596,
   77.9788,       607,
    77.999,       597,
