;RAW4.00
[RawHeader]
Date=11/26/2025
EstimatedTotalTime=426.6
FurtherDQLReading=0
HardwareIndicator=65519
MeasuredTotalTime=4.32846
MeasurementFlag=1
NumberOfMeasuredRanges=1
NumberOfRanges=1
Time=16:59:40

[VarInfo]
Type=USER
Flags=0
Value=Lab Manager

[VarInfo]
Type=SAMPLEID
Flags=0
Value=Commander Sample ID

[VarInfo]
Type=COMMENT
Flags=0
Value=

[VarInfo]
Type=UTF
Flags=0
Value=

[VarInfo]
Type=CREATOR
Flags=0
Value=V5Converter

[VarInfo]
Type=CREATOR_VERSION
Flags=0
Value=4.4.16.0

[HardwareConfiguration]
AbsorptionFactor=9999
ActivateAbsorber=0
Alpha1=1.5406
Alpha2=1.54439
AlphaAverage=1.54184
AlphaRatio=0.5
Analyzer=0
Anode=Cu
AntiScatteringSlit=9999
BeamOpticsFlags=0
Beta=1.39222
BetaRelativeIntensity=0
DeactivateAbsorber=0
DetectorSlit=9999
DivergenceSlit=9999
GoniometerControl=0
GoniometerDiameter=282
GoniometerModel=256
GoniometerStage=7
Monochromator=0
NearSampleSlit=9999
PrimarySollerSlit=9999
SampleChanger=0
SecondSollerSlit=9999
SynchronousAxis=0
ThinFilmAttachment=9999
WaveUnit=A

[RangeHeader]
ActuallyUsedLambda=1.54184
AdditionalDetectorMask=257
DataRecordLength=4
DelayTime=0
DisplayPlaneNumber=0
EstimatedScanTime=427
ExtraParametersMask=0
GeneratorCurrent=10
GeneratorVoltage=30
Increment=0.0201685
Increment3=0
NumberOfCompletedData=1885
NumberOfCounts=1
NumberOfDetectors=0
NumberOfDrives=3
NumberOfEncoderDrives=0
NumberOfMeasuredData=1885
NumberOfVaryingParameters=0
RangeStartTime=0
RotationSpeed=0
ScanMode=1
ScanType=Locked Coupled
SimulatedMeasConditions=0
SlitChangerIn=0
SmootingWidth=0
Start=40.0015
Steps=1885
SynchronousRotation=0
Time=33

[VarInfo]
Type=PSD_DISCRIM
Flags=0
Value=0.11;0.5

[VarInfo]
Type=OPTICS_V5
Flags=0
Value=H4sIAAAAAAAEAO1d63KjOhJ+Fda/zqmtBIPtXKaITzm2J+OaOHbFTnKmtrZcBORYZzC4AOey//d99hl2X2x1QViIS8C3JBN+TCaodWm6+2vUUkfS/nieW9IjcD3o2GcV5bBakYBtOCa0H84qS396oBxV/mhqF44NnTnwgdt25gvHBrbf0X1dQq1t78uzB88qM99ffJHlp6enw6faoeM+yGq1qsh/9i9HxgzM9QNoe75uG6AStjJfb1WRbqEH7y1wpc/BWWXFR0joAM9w4cInL/Bj4UHLsSW+3oXrLBc9NBZ6t3Pgojcb3P8FDH+o+7OzitwBj9AAMt+CrxUfl1Lblu55QRehTORzoM8XqLDt2L4ObeBy/coBc6yHluEvdYtxoR6o1ePT02O5h8TkLue4tzhrTW2EZGjqqBswQr3oFvyXjl+9OdUtD2hyGln7c259hcAyrwHqHhq4EDFpA/KbJ8lNjfKD1ToCFipvdm00JDA1OUbR6Btwou9Ab2HpL824AjQ5tXK8m+bF4OrHhPzodEft64TGrBVWDOsoPhpP1bBWhrxWvISy1r0hIUP+4r8skMLHrm78xG8sGODQhXPdfSHkZBMMakgD9GxISBvSeHkPOIFIQeOidilHx44baRI9r5mSRmyEDSxUYBJZ3blu/xy4JnCvAfYzAL0wsdX3b8s5NVnMwIfj6+8T9KPV/l7IxHm5Jhp5z0OvBh9BE+kGCS98DAk920dCZMIVSikeHA9SJulgmhwp1bAq2ZMXfZT4B2LSAxc+QFu3ogSlwl6OWi7Ssb/0moPwnSLFGmsYPPedJdIj0qJQrgWE0MJ5JCOdEXICmjFtjmnJUA7J0tRxpRHQLUBtYA3AytxYcejGiMm4JZa46kmmLG0LrhEWBa3xcus++8A2MZDfDYZpCWdMkQKtj5nwHfcltGVFk+OFGseMJxH2qHoYWND7cnJosmJN5ku1uCnh1+H65qyTKx3Y545jAR1NEG5s6BPpdiDSG56bXcI59IlYwiKvWdVk7knrgKm+tPxb3VoCboigVyQ96CPXTshnFewlKri/oQta5l9LD8GnYEuZYx67mbHTJoqe6ZblPK0cjVCOarZnwPgJzFUVVqC1ESPOHKsWvx33pNH5Zl7erhEyxkg2xVq1lr7TdoHug6HrLIDrvzAWEyiR9/eIRfdMhLKr5fweuE21rslCEdaQRS08UPF//xMyUSUc9B0TNG8Quqbos4xMnTwz90Y+PzEHluy7tuWt5HgP/ND5vNXOHBXjLvaN2aNbYuh5A79Evm3IJvErCL6JJ23LP418rD3OPSHRTOHDEjnla/gw85sIdabECnU0BoKwUKWYS+vrz5fAfvBnTbXRwKJhj2nOjrJISkNktZevObqMVm/q5DL4SnFwGS02cm5pFninPwKqkpa1mOmKYIUieVuWOJh2nCVqyWzxf//ehzWm2Nxw9uJBQ7dIeQJnTA/KYaNePXrNFtfo7ca2MPfItOjcf/WMZelYS+paugfVBtErK9H60Ibz5bx5oBwenx4fndaUWv3kSK0pjePu32vVE4S4oAZGIvklvWZQ4W0Rs4b0UpC0Rk/7QJiajTD10yOsXjvdJsRYdyXGNhLfFkDGuto1yh6Bqz+IoV6M/ulxppzUt4kz1l2Js43EtwWcsa52jLNz4OupIMPET46w2qmqqttD2Kq7EmEbiW9jhK262jHCrvGaRirECHVXGHuvCFutth02NsJWrKMSVWsKbh08xTrZCZK+OsbSG7gQ2D5ZHRSgJJK3tspG1g4H057tH9XfH6CibEVXr/OjKbkXhfRCBYDfqOeDOWLs0nmABl3VvJn0rm5bl73OpP2tN9TkFYkJfAye/WbPftQtiMQzg4uVjCJaIvW07+CFjI1lEf6uyTEWsnm67F2lsnIJbSARW0kbWtlk6OEgY+yhA20/e3B1k8GZLoaD0auqCHeKD6S58wgk35HmwJjpNrYKCTmTxd/SeKxl8/ienF2WXefzdFk9bOTm6N5Lz546UqiqhAVciZbr3FOQY3BWIVUkVBrdJr+ZtC6H31rRcrGRhEeyyEjkXXKxo0bYURPZUVPYUbPYUQuzEywL8PxEyoQBQloib5PW7UUWe0HrokySmCrg8D78PeybkkWGzrvjVjIvuH4+FiIbUQEDqBXeyxN46LJSkY3uZbffvRqnSMV2TCAFbaXVSDlkQmfBvNq4EkHsASVZZdetcW+QpTTSOp+8YlOLgL9pYnk4ToQicvl10J4MrpMZJONJkeZyfMe6Ed+xvgA2skTfcYU8TFacvPmcsQFLZ8dr7r82tXQiP3O7dSw/voYXlO4q5vl5u6WEjcypLxqFfRNqVSHyCL4FKaFHctihVBMCjFp1f7FErbF+MBEXRsEvZLo55TW19tJ1sT+LmlpQuitTm7f2YWpolHD6sQ1TaySFsh/E0uKy2LulDZ0nkgHOmxQp25WV3aUEnW+xcHMnRJr5lluqhymm+EkWW+4491hde7Ul3ssWbV9+7YtfJA0UTQyNGXBfyVbbPA8ud74bklUw60j9YgWfilQ/I4dzraYmBmuZ2QhiKJW9qxqLdLI3h6IxR/YytzAXT1vD42MIIXVJnC4nR8cylyaJ7OZRhxZeJcCPHu2eWH2ZQFkmUJYJlGUCZZlA+fE2xcsEyvezJV4mUP6aCCsTKN8TxsoEyl8VZ2UC5XvCWZlA+ashrEygfE8IKxMoywTKMoGyTKAsEyjLBMoygbJMoCwTKMsEyjKBskygLBMoywTKMoGyTKAsEyjLBMoygbJMoHzr+KNMoCwTKD9tAiXLkUS/iumT7KzT+Cmg4tm7GScqd+cL/4UkG4arGcVOT+72h4PRhP4scnoyGTg0xcTzk2U+BzLzcGMl7XBjde+HGw8WbefceR5MR45lATfhiGNKyDjkmKsg/WbotmTQQ8ElNJZEifQE7N/XgX9k+LhXSSBnuYaE6hunwkb7FPSZfOxxRGTIPPKL8PePe2KymphYK0bAR+scevtxXAin6Q2diJrmRGpv50S+wmdgEkNlcw/RmVjQz3IliCz1U2CAaRv4kdXICV5EJGb6ELHy5h6E61FQZYr/YA2o98gntQ/sOmq5XMfxeudlE7OmVzSsTJpYMhZe0hcRy1SR/jGf/zPDjH/DR/7fA2QfErQ9hAVgol98R9I5hWWaMq5mhBds4KeJUp0oaQYcIb5mwIVtN52ZmPP5qH/5US30lx930PRnYm4HLtvZktP8/WxBxzgL44DNsuvjPeVdZqh+7nWGuODWWWeI97KTtI5vABumgB1a+LnBszXslNBZz+i3gpzt3wSirjOzGenzhQXuZgBYY/QC/KUgIkkjH65UJ0ChmfamMj+F+lCxGJtFbxiJ1dIisfpGkRjhMR6HvT9h3thLD5hkeHHgLInKwm1g17oJl16CldWVYB+fXrg3mE494KdZfesZevz3Iay2B1ceYybnbh1ywVU1LSlVPTypn6qNRkNN8LvHjcOTRv24dqQqvK8VhNAM7mETbitc+w7DEUCRgJl9i2FYh7v9roNCXwNnMmzhLkORh4SYKLFGsfsMwz42ifVFRj70nYaF9FrM/4zwzYaj4jcbRuW787sNw+F2cbvhyRss3uHlOks3wMyxzMQtgMsX+xm8pBxzcfnj6s/ujy654bCjSsOZ7olX4OYEsRyOEwezQMpa3mDWKOO8X3k4Wj2jProvYAvX6KYzLmrzl7v28CTPUlxNiU9Yi8wL0ecUu0XdWrmWfniNJk2pxn6HJHazGl4xZ9PpjyfkXwFHw4ba6R6gstmscZebgP09bgIKCIswkLYN2N/zNmAmj6JSs3YC+59rJ1Cp53Ii1c+wFVhGSkUjpbRAqXF4dHrSUJRqPWmBqqEcHldP68dqfQeB0sontAHGieA9hcKI4+SmzLSadMAw70kjnLfkkW8dVkPLMIDnOS4E3hoRE+Mi7j2jlLwRUvyl1/ekrIcPHRqtqcpiLudicNWekB9FHA7lZ+eh0Ri4qHQnkdHp3mdFwxkkShPAfO0EGXBRYgTUqKlErdE1Wb0CGJXZGHSdNqGDKCsJ1TJnP6vqMuJUZpxuDuAUxgVFpsREEgUYMFu+rxszPNBZ5WDPRwluc5pzmitr4SQ+y+l5TBQhKMMCjfMcZLfIWj48ALPjYkzSv8ZE3eHvWs9sIu2S3oNHTCEVRwtgwGnwt6KsUpyC4BLvvcgEK46DYs5u+K03mpAfRZxdFKHbnGBVi0yvQisOP5lEYfRDEPwf22IqXU7pckqXI7qcECvsd+8VLsZPznhGTjB6jZVIzZz8ZA+dc9yig6ZEJvFifFQxXo8YAd9H0PIkfi6GHAXNPKxILbzB7vVR6AbplI5NtLGOuVT/5i2e1Rn4EFu+VFtBkewhB6uqmiyUa3yqI/WAkWUTj/6JxSqYYK6D6Pv/u9RXv2COAAA=

[PSD]
ActualTwoTheta=9999
FirstUsedChannel=0
FixedPSD=0
PSDOpening=4.99171
PSDType=5

[Drive]
DriveFlags=1
DriveName=2Theta
DriveNumber=2
DriveOffset=0
OffsetIndex=0
OscillationAmplitude=0
OscillationSpeed=0
StartPosition=40.0015

[Drive]
DriveFlags=1
DriveName=Theta
DriveNumber=1
DriveOffset=0
OffsetIndex=0
OscillationAmplitude=0
OscillationSpeed=0
StartPosition=20.0007

[Drive]
DriveFlags=1
DriveName=Phi
DriveNumber=3
DriveOffset=0
OffsetIndex=0
OscillationAmplitude=0
OscillationSpeed=0
StartPosition=0

[Data]
     Angle,       PSD,
   40.0015,       610,
   40.0217,       650,
   40.0418,       629,
    40.062,       624,
   40.0822,       649,
   40.1023,       647,
   40.1225,       649,
   40.1427,       677,
   40.1628,       687,
    40.183,       577,
   40.2032,       661,
   40.2233,       624,
   40.2435,       608,
   40.2637,       659,
   40.2838,       646,
    40.304,       644,
   40.3242,       649,
   40.3444,       631,
   40.3645,       655,
   40.3847,       661,
   40.4049,       619,
    40.425,       628,
   40.4452,       605,
   40.4654,       616,
   40.4855,       656,
   40.5057,       641,
   40.5259,       668,
    40.546,       632,
   40.5662,       620,
   40.5864,       572,
   40.6065,       684,
   40.6267,       680,
   40.6469,       670,
   40.6671,       629,
   40.6872,       637,
   40.7074,       645,
   40.7276,       611,
   40.7477,       625,
   40.7679,       670,
   40.7881,       635,
   40.8082,       657,
   40.8284,       637,
   40.8486,       622,
   40.8687,       621,
   40.8889,       632,
   40.9091,       640,
   40.9292,       637,
   40.9494,       635,
   40.9696,       580,
   40.9897,       628,
   41.0099,       621,
   41.0301,       659,
   41.0503,       666,
   41.0704,       593,
   41.0906,       653,
   41.1108,       611,
   41.1309,       647,
   41.1511,       632,
   41.1713,       666,
   41.1914,       671,
   41.2116,       587,
   41.2318,       645,
   41.2519,       666,
   41.2721,       615,
   41.2923,       600,
   41.3124,       646,
   41.3326,       636,
   41.3528,       662,
   41.3729,       629,
   41.3931,       630,
   41.4133,       657,
   41.4335,       662,
   41.4536,       636,
   41.4738,       617,
    41.494,       608,
   41.5141,       633,
   41.5343,       598,
   41.5545,       604,
   41.5746,       613,
   41.5948,       655,
    41.615,       653,
   41.6351,       675,
   41.6553,       666,
   41.6755,       629,
   41.6956,       643,
   41.7158,       689,
    41.736,       656,
   41.7562,       641,
   41.7763,       688,
   41.7965,       705,
   41.8167,       687,
   41.8368,       771,
    41.857,       747,
   41.8772,       713,
   41.8973,       775,
   41.9175,       738,
   41.9377,       762,
   41.9578,       756,
    41.978,       759,
   41.9982,       775,
   42.0183,       770,
   42.0385,       785,
   42.0587,       746,
   42.0788,       794,
    42.099,       790,
   42.1192,       759,
   42.1394,       824,
   42.1595,       748,
   42.1797,       780,
   42.1999,       797,
     42.22,       776,
   42.2402,       797,
   42.2604,       773,
   42.2805,       764,
   42.3007,       797,
   42.3209,       742,
    42.341,       777,
   42.3612,       779,
   42.3814,       812,
   42.4015,       806,
   42.4217,       752,
   42.4419,       775,
    42.462,       762,
   42.4822,       742,
   42.5024,       756,
   42.5226,       792,
   42.5427,       761,
   42.5629,       819,
   42.5831,       827,
   42.6032,       784,
   42.6234,       780,
   42.6436,       793,
   42.6637,       785,
   42.6839,       831,
   42.7041,       828,
   42.7242,       780,
   42.7444,       817,
   42.7646,       837,
   42.7847,       847,
   42.8049,       864,
   42.8251,       876,
   42.8453,       857,
   42.8654,       874,
   42.8856,       972,
   42.9058,       940,
   42.9259,      1009,
   42.9461,      1066,
   42.9663,      1175,
   42.9864,      1137,
   43.0066,      1178,
   43.0268,      1220,
   43.0469,      1214,
   43.0671,      1342,
   43.0873,      1418,
   43.1074,      1538,
   43.1276,      1713,
   43.1478,      1900,
   43.1679,      1977,
   43.1881,      2264,
   43.2083,      2214,
   43.2285,      2474,
   43.2486,      2903,
   43.2688,      3817,
    43.289,      5948,
   43.3091,     11054,
   43.3293,     25208,
   43.3495,     49914,
   43.3696,     61666,
   43.3898,     41346,
     43.41,     19443,
   43.4301,     14056,
   43.4503,     20635,
   43.4705,     30622,
   43.4906,     29403,
   43.5108,     16585,
    43.531,      7499,
   43.5511,      4142,
   43.5713,      3028,
   43.5915,      2527,
   43.6117,      2212,
   43.6318,      1897,
    43.652,      1788,
   43.6722,      1743,
   43.6923,      1487,
   43.7125,      1353,
   43.7327,      1318,
   43.7528,      1239,
    43.773,      1080,
   43.7932,      1051,
   43.8133,       990,
   43.8335,       970,
   43.8537,       934,
   43.8738,       914,
    43.894,       920,
   43.9142,       894,
   43.9344,       902,
   43.9545,       861,
   43.9747,       838,
   43.9949,       885,
    44.015,       829,
   44.0352,       838,
   44.0554,       844,
   44.0755,       869,
   44.0957,       811,
   44.1159,       800,
    44.136,       765,
   44.1562,       792,
   44.1764,       758,
   44.1965,       780,
   44.2167,       782,
   44.2369,       785,
    44.257,       818,
   44.2772,       848,
   44.2974,       804,
   44.3176,       787,
   44.3377,       802,
   44.3579,       745,
   44.3781,       778,
   44.3982,       771,
   44.4184,       765,
   44.4386,       766,
   44.4587,       719,
   44.4789,       758,
   44.4991,       752,
   44.5192,       730,
   44.5394,       745,
   44.5596,       747,
   44.5797,       780,
   44.5999,       749,
   44.6201,       743,
   44.6402,       736,
   44.6604,       747,
   44.6806,       700,
   44.7008,       724,
   44.7209,       766,
   44.7411,       724,
   44.7613,       687,
   44.7814,       714,
   44.8016,       725,
   44.8218,       759,
   44.8419,       718,
   44.8621,       739,
   44.8823,       738,
   44.9024,       753,
   44.9226,       772,
   44.9428,       691,
   44.9629,       704,
   44.9831,       755,
   45.0033,       697,
   45.0235,       703,
   45.0436,       739,
   45.0638,       744,
    45.084,       764,
   45.1041,       702,
   45.1243,       734,
   45.1445,       740,
   45.1646,       694,
   45.1848,       715,
    45.205,       713,
   45.2251,       723,
   45.2453,       732,
   45.2655,       680,
   45.2856,       767,
   45.3058,       702,
    45.326,       744,
   45.3461,       770,
   45.3663,       770,
   45.3865,       782,
   45.4067,       683,
   45.4268,       717,
    45.447,       724,
   45.4672,       701,
   45.4873,       739,
   45.5075,       730,
   45.5277,       698,
   45.5478,       726,
    45.568,       677,
   45.5882,       683,
   45.6083,       733,
   45.6285,       731,
   45.6487,       751,
   45.6688,       745,
    45.689,       712,
   45.7092,       694,
   45.7294,       686,
   45.7495,       702,
   45.7697,       720,
   45.7899,       710,
     45.81,       668,
   45.8302,       703,
   45.8504,       717,
   45.8705,       727,
   45.8907,       700,
   45.9109,       678,
    45.931,       669,
   45.9512,       683,
   45.9714,       699,
   45.9915,       695,
   46.0117,       725,
   46.0319,       685,
    46.052,       716,
   46.0722,       742,
   46.0924,       668,
   46.1126,       713,
   46.1327,       670,
   46.1529,       732,
   46.1731,       688,
   46.1932,       660,
   46.2134,       665,
   46.2336,       685,
   46.2537,       692,
   46.2739,       758,
   46.2941,       687,
   46.3142,       716,
   46.3344,       661,
   46.3546,       684,
   46.3747,       714,
   46.3949,       693,
   46.4151,       688,
   46.4352,       636,
   46.4554,       716,
   46.4756,       679,
   46.4958,       721,
   46.5159,       718,
   46.5361,       713,
   46.5563,       697,
   46.5764,       694,
   46.5966,       705,
   46.6168,       701,
   46.6369,       624,
   46.6571,       699,
   46.6773,       664,
   46.6974,       659,
   46.7176,       684,
   46.7378,       686,
   46.7579,       683,
   46.7781,       648,
   46.7983,       750,
   46.8185,       714,
   46.8386,       705,
   46.8588,       716,
    46.879,       672,
   46.8991,       727,
   46.9193,       642,
   46.9395,       660,
   46.9596,       696,
   46.9798,       653,
        47,       698,
   47.0201,       680,
   47.0403,       699,
   47.0605,       675,
   47.0806,       682,
   47.1008,       694,
    47.121,       721,
   47.1411,       697,
   47.1613,       670,
   47.1815,       671,
   47.2017,       662,
   47.2218,       644,
    47.242,       700,
   47.2622,       692,
   47.2823,       682,
   47.3025,       641,
   47.3227,       689,
   47.3428,       647,
    47.363,       644,
   47.3832,       695,
   47.4033,       697,
   47.4235,       705,
   47.4437,       729,
   47.4638,       694,
    47.484,       628,
   47.5042,       707,
   47.5243,       647,
   47.5445,       716,
   47.5647,       699,
   47.5849,       687,
    47.605,       680,
   47.6252,       656,
   47.6454,       680,
   47.6655,       703,
   47.6857,       716,
   47.7059,       688,
    47.726,       693,
   47.7462,       675,
   47.7664,       686,
   47.7865,       648,
   47.8067,       708,
   47.8269,       696,
    47.847,       674,
   47.8672,       640,
   47.8874,       645,
   47.9076,       671,
   47.9277,       683,
   47.9479,       671,
   47.9681,       681,
   47.9882,       684,
   48.0084,       726,
   48.0286,       660,
   48.0487,       717,
   48.0689,       670,
   48.0891,       639,
   48.1092,       696,
   48.1294,       676,
   48.1496,       667,
   48.1697,       669,
   48.1899,       639,
   48.2101,       683,
   48.2302,       679,
   48.2504,       656,
   48.2706,       650,
   48.2908,       646,
   48.3109,       728,
   48.3311,       651,
   48.3513,       703,
   48.3714,       662,
   48.3916,       711,
   48.4118,       678,
   48.4319,       694,
   48.4521,       664,
   48.4723,       673,
   48.4924,       655,
   48.5126,       673,
   48.5328,       739,
   48.5529,       672,
   48.5731,       660,
   48.5933,       660,
   48.6134,       660,
   48.6336,       656,
   48.6538,       662,
    48.674,       644,
   48.6941,       677,
   48.7143,       678,
   48.7345,       699,
   48.7546,       697,
   48.7748,       680,
    48.795,       754,
   48.8151,       725,
   48.8353,       717,
   48.8555,       699,
   48.8756,       681,
   48.8958,       692,
    48.916,       668,
   48.9361,       711,
   48.9563,       729,
   48.9765,       716,
   48.9967,       691,
   49.0168,       744,
    49.037,       717,
   49.0572,       717,
   49.0773,       689,
   49.0975,       724,
   49.1177,       664,
   49.1378,       692,
    49.158,       688,
   49.1782,       678,
   49.1983,       701,
   49.2185,       711,
   49.2387,       703,
   49.2588,       719,
    49.279,       682,
   49.2992,       707,
   49.3193,       716,
   49.3395,       677,
   49.3597,       708,
   49.3799,       746,
      49.4,       696,
   49.4202,       713,
   49.4404,       679,
   49.4605,       649,
   49.4807,       737,
   49.5009,       721,
    49.521,       704,
   49.5412,       751,
   49.5614,       716,
   49.5815,       681,
   49.6017,       700,
   49.6219,       719,
    49.642,       696,
   49.6622,       734,
   49.6824,       744,
   49.7025,       730,
   49.7227,       712,
   49.7429,       703,
   49.7631,       681,
   49.7832,       711,
   49.8034,       708,
   49.8236,       712,
   49.8437,       727,
   49.8639,       705,
   49.8841,       738,
   49.9042,       779,
   49.9244,       721,
   49.9446,       728,
   49.9647,       756,
   49.9849,       729,
   50.0051,       790,
   50.0252,       796,
   50.0454,       792,
   50.0656,       809,
   50.0858,       802,
   50.1059,       840,
   50.1261,       862,
   50.1463,       900,
   50.1664,       962,
   50.1866,       940,
   50.2068,       983,
   50.2269,      1028,
   50.2471,      1145,
   50.2673,      1140,
   50.2874,      1143,
   50.3076,      1255,
   50.3278,      1315,
   50.3479,      1457,
   50.3681,      1643,
   50.3883,      1899,
   50.4084,      2681,
   50.4286,      3966,
   50.4488,      6548,
    50.469,     10360,
   50.4891,     14250,
   50.5093,     13762,
   50.5295,      9613,
   50.5496,      6520,
   50.5698,      5116,
     50.59,      5479,
   50.6101,      7069,
   50.6303,      8042,
   50.6505,      6833,
   50.6706,      4847,
   50.6908,      3063,
    50.711,      2095,
   50.7311,      1608,
   50.7513,      1421,
   50.7715,      1265,
   50.7917,      1173,
   50.8118,      1082,
    50.832,      1058,
   50.8522,      1013,
   50.8723,       891,
   50.8925,       862,
   50.9127,       844,
   50.9328,       849,
    50.953,       821,
   50.9732,       806,
   50.9933,       746,
   51.0135,       769,
   51.0337,       746,
   51.0538,       730,
    51.074,       745,
   51.0942,       797,
   51.1143,       724,
   51.1345,       744,
   51.1547,       721,
   51.1749,       714,
    51.195,       742,
   51.2152,       686,
   51.2354,       726,
   51.2555,       680,
   51.2757,       686,
   51.2959,       669,
    51.316,       731,
   51.3362,       702,
   51.3564,       701,
   51.3765,       703,
   51.3967,       661,
   51.4169,       718,
    51.437,       678,
   51.4572,       730,
   51.4774,       685,
   51.4975,       734,
   51.5177,       671,
   51.5379,       640,
   51.5581,       649,
   51.5782,       618,
   51.5984,       680,
   51.6186,       659,
   51.6387,       692,
   51.6589,       658,
   51.6791,       686,
   51.6992,       658,
   51.7194,       666,
   51.7396,       677,
   51.7597,       699,
   51.7799,       738,
   51.8001,       688,
   51.8202,       693,
   51.8404,       673,
   51.8606,       651,
   51.8808,       704,
   51.9009,       676,
   51.9211,       669,
   51.9413,       674,
   51.9614,       698,
   51.9816,       622,
   52.0018,       668,
   52.0219,       670,
   52.0421,       685,
   52.0623,       673,
   52.0824,       679,
   52.1026,       711,
   52.1228,       691,
   52.1429,       613,
   52.1631,       640,
   52.1833,       640,
   52.2034,       657,
   52.2236,       652,
   52.2438,       668,
    52.264,       667,
   52.2841,       638,
   52.3043,       692,
   52.3245,       690,
   52.3446,       655,
   52.3648,       647,
    52.385,       619,
   52.4051,       640,
   52.4253,       712,
   52.4455,       672,
   52.4656,       685,
   52.4858,       645,
    52.506,       645,
   52.5261,       655,
   52.5463,       652,
   52.5665,       644,
   52.5866,       660,
   52.6068,       667,
    52.627,       660,
   52.6472,       677,
   52.6673,       664,
   52.6875,       665,
   52.7077,       667,
   52.7278,       636,
    52.748,       642,
   52.7682,       625,
   52.7883,       727,
   52.8085,       653,
   52.8287,       640,
   52.8488,       649,
    52.869,       657,
   52.8892,       689,
   52.9093,       603,
   52.9295,       654,
   52.9497,       627,
   52.9699,       685,
     52.99,       661,
   53.0102,       640,
   53.0304,       631,
   53.0505,       656,
   53.0707,       623,
   53.0909,       621,
    53.111,       670,
   53.1312,       610,
   53.1514,       685,
   53.1715,       670,
   53.1917,       684,
   53.2119,       629,
    53.232,       640,
   53.2522,       679,
   53.2724,       665,
   53.2925,       638,
   53.3127,       619,
   53.3329,       710,
   53.3531,       649,
   53.3732,       691,
   53.3934,       631,
   53.4136,       675,
   53.4337,       651,
   53.4539,       644,
   53.4741,       587,
   53.4942,       692,
   53.5144,       675,
   53.5346,       667,
   53.5547,       644,
   53.5749,       678,
   53.5951,       681,
   53.6152,       646,
   53.6354,       646,
   53.6556,       643,
   53.6757,       677,
   53.6959,       629,
   53.7161,       643,
   53.7363,       619,
   53.7564,       627,
   53.7766,       653,
   53.7968,       624,
   53.8169,       649,
   53.8371,       632,
   53.8573,       658,
   53.8774,       625,
   53.8976,       623,
   53.9178,       646,
   53.9379,       652,
   53.9581,       651,
   53.9783,       631,
   53.9984,       636,
   54.0186,       647,
   54.0388,       679,
    54.059,       684,
   54.0791,       640,
   54.0993,       628,
   54.1195,       622,
   54.1396,       640,
   54.1598,       644,
     54.18,       662,
   54.2001,       633,
   54.2203,       617,
   54.2405,       617,
   54.2606,       630,
   54.2808,       633,
    54.301,       636,
   54.3211,       657,
   54.3413,       591,
   54.3615,       666,
   54.3816,       646,
   54.4018,       632,
    54.422,       647,
   54.4422,       659,
   54.4623,       649,
   54.4825,       666,
   54.5027,       646,
   54.5228,       563,
    54.543,       643,
   54.5632,       635,
   54.5833,       613,
   54.6035,       588,
   54.6237,       612,
   54.6438,       653,
    54.664,       630,
   54.6842,       628,
   54.7043,       651,
   54.7245,       633,
   54.7447,       643,
   54.7648,       608,
    54.785,       638,
   54.8052,       617,
   54.8254,       635,
   54.8455,       607,
   54.8657,       623,
   54.8859,       615,
    54.906,       675,
   54.9262,       613,
   54.9464,       580,
   54.9665,       669,
   54.9867,       631,
   55.0069,       651,
    55.027,       613,
   55.0472,       601,
   55.0674,       612,
   55.0875,       637,
   55.1077,       629,
   55.1279,       663,
   55.1481,       636,
   55.1682,       644,
   55.1884,       661,
   55.2086,       672,
   55.2287,       643,
   55.2489,       668,
   55.2691,       621,
   55.2892,       643,
   55.3094,       656,
   55.3296,       664,
   55.3497,       674,
   55.3699,       629,
   55.3901,       684,
   55.4102,       596,
   55.4304,       660,
   55.4506,       639,
   55.4707,       612,
   55.4909,       634,
   55.5111,       633,
   55.5313,       645,
   55.5514,       669,
   55.5716,       643,
   55.5918,       623,
   55.6119,       620,
   55.6321,       671,
   55.6523,       631,
   55.6724,       639,
   55.6926,       650,
   55.7128,       658,
   55.7329,       616,
   55.7531,       622,
   55.7733,       625,
   55.7934,       675,
   55.8136,       657,
   55.8338,       615,
    55.854,       609,
   55.8741,       644,
   55.8943,       627,
   55.9145,       616,
   55.9346,       604,
   55.9548,       607,
    55.975,       632,
   55.9951,       613,
   56.0153,       675,
   56.0355,       641,
   56.0556,       644,
   56.0758,       649,
    56.096,       634,
   56.1161,       647,
   56.1363,       669,
   56.1565,       586,
   56.1766,       671,
   56.1968,       661,
    56.217,       609,
   56.2372,       617,
   56.2573,       619,
   56.2775,       625,
   56.2977,       606,
   56.3178,       614,
    56.338,       619,
   56.3582,       609,
   56.3783,       618,
   56.3985,       623,
   56.4187,       648,
   56.4388,       586,
    56.459,       618,
   56.4792,       619,
   56.4993,       690,
   56.5195,       652,
   56.5397,       622,
   56.5598,       613,
     56.58,       606,
   56.6002,       648,
   56.6204,       631,
   56.6405,       635,
   56.6607,       595,
   56.6809,       648,
    56.701,       667,
   56.7212,       628,
   56.7414,       623,
   56.7615,       604,
   56.7817,       614,
   56.8019,       633,
    56.822,       636,
   56.8422,       655,
   56.8624,       641,
   56.8825,       658,
   56.9027,       575,
   56.9229,       628,
   56.9431,       606,
   56.9632,       615,
   56.9834,       628,
   57.0036,       664,
   57.0237,       604,
   57.0439,       619,
   57.0641,       627,
   57.0842,       645,
   57.1044,       636,
   57.1246,       676,
   57.1447,       600,
   57.1649,       655,
   57.1851,       623,
   57.2052,       605,
   57.2254,       616,
   57.2456,       603,
   57.2657,       626,
   57.2859,       625,
   57.3061,       643,
   57.3263,       612,
   57.3464,       651,
   57.3666,       656,
   57.3868,       612,
   57.4069,       667,
   57.4271,       629,
   57.4473,       650,
   57.4674,       615,
   57.4876,       625,
   57.5078,       590,
   57.5279,       635,
   57.5481,       615,
   57.5683,       625,
   57.5884,       629,
   57.6086,       599,
   57.6288,       581,
   57.6489,       615,
   57.6691,       617,
   57.6893,       611,
   57.7095,       640,
   57.7296,       651,
   57.7498,       624,
     57.77,       632,
   57.7901,       616,
   57.8103,       622,
   57.8305,       662,
   57.8506,       641,
   57.8708,       621,
    57.891,       594,
   57.9111,       618,
   57.9313,       610,
   57.9515,       650,
   57.9716,       623,
   57.9918,       667,
    58.012,       634,
   58.0322,       596,
   58.0523,       579,
   58.0725,       630,
   58.0927,       624,
   58.1128,       628,
    58.133,       645,
   58.1532,       600,
   58.1733,       608,
   58.1935,       663,
   58.2137,       636,
   58.2338,       622,
    58.254,       637,
   58.2742,       610,
   58.2943,       640,
   58.3145,       597,
   58.3347,       666,
   58.3548,       637,
    58.375,       597,
   58.3952,       596,
   58.4154,       649,
   58.4355,       648,
   58.4557,       654,
   58.4759,       608,
    58.496,       660,
   58.5162,       656,
   58.5364,       614,
   58.5565,       599,
   58.5767,       648,
   58.5969,       602,
    58.617,       609,
   58.6372,       620,
   58.6574,       659,
   58.6775,       589,
   58.6977,       606,
   58.7179,       599,
    58.738,       636,
   58.7582,       651,
   58.7784,       634,
   58.7986,       608,
   58.8187,       631,
   58.8389,       661,
   58.8591,       616,
   58.8792,       634,
   58.8994,       620,
   58.9196,       604,
   58.9397,       620,
   58.9599,       607,
   58.9801,       620,
   59.0002,       589,
   59.0204,       630,
   59.0406,       596,
   59.0607,       625,
   59.0809,       603,
   59.1011,       620,
   59.1213,       651,
   59.1414,       643,
   59.1616,       586,
   59.1818,       606,
   59.2019,       621,
   59.2221,       566,
   59.2423,       642,
   59.2624,       621,
   59.2826,       607,
   59.3028,       611,
   59.3229,       605,
   59.3431,       653,
   59.3633,       643,
   59.3834,       616,
   59.4036,       616,
   59.4238,       589,
   59.4439,       622,
   59.4641,       669,
   59.4843,       654,
   59.5045,       627,
   59.5246,       617,
   59.5448,       668,
    59.565,       640,
   59.5851,       604,
   59.6053,       622,
   59.6255,       649,
   59.6456,       596,
   59.6658,       622,
    59.686,       655,
   59.7061,       607,
   59.7263,       603,
   59.7465,       598,
   59.7666,       576,
   59.7868,       612,
    59.807,       631,
   59.8271,       615,
   59.8473,       594,
   59.8675,       582,
   59.8877,       583,
   59.9078,       596,
    59.928,       623,
   59.9482,       617,
   59.9683,       681,
   59.9885,       614,
   60.0087,       632,
   60.0288,       645,
    60.049,       660,
   60.0692,       610,
   60.0893,       602,
   60.1095,       636,
   60.1297,       566,
   60.1498,       660,
     60.17,       589,
   60.1902,       652,
   60.2104,       583,
   60.2305,       572,
   60.2507,       631,
   60.2709,       624,
    60.291,       644,
   60.3112,       629,
   60.3314,       637,
   60.3515,       614,
   60.3717,       574,
   60.3919,       606,
    60.412,       610,
   60.4322,       613,
   60.4524,       633,
   60.4725,       637,
   60.4927,       615,
   60.5129,       620,
    60.533,       634,
   60.5532,       666,
   60.5734,       569,
   60.5936,       576,
   60.6137,       645,
   60.6339,       648,
   60.6541,       630,
   60.6742,       629,
   60.6944,       593,
   60.7146,       659,
   60.7347,       631,
   60.7549,       616,
   60.7751,       591,
   60.7952,       644,
   60.8154,       615,
   60.8356,       623,
   60.8557,       642,
   60.8759,       614,
   60.8961,       626,
   60.9163,       585,
   60.9364,       625,
   60.9566,       598,
   60.9768,       620,
   60.9969,       652,
   61.0171,       625,
   61.0373,       608,
   61.0574,       590,
   61.0776,       613,
   61.0978,       609,
   61.1179,       619,
   61.1381,       606,
   61.1583,       578,
   61.1784,       596,
   61.1986,       626,
   61.2188,       587,
   61.2389,       644,
   61.2591,       613,
   61.2793,       645,
   61.2995,       633,
   61.3196,       646,
   61.3398,       615,
     61.36,       607,
   61.3801,       632,
   61.4003,       633,
   61.4205,       613,
   61.4406,       598,
   61.4608,       616,
    61.481,       608,
   61.5011,       614,
   61.5213,       646,
   61.5415,       602,
   61.5616,       595,
   61.5818,       599,
    61.602,       646,
   61.6221,       635,
   61.6423,       587,
   61.6625,       641,
   61.6827,       586,
   61.7028,       571,
    61.723,       613,
   61.7432,       647,
   61.7633,       570,
   61.7835,       580,
   61.8037,       574,
   61.8238,       609,
    61.844,       646,
   61.8642,       617,
   61.8843,       638,
   61.9045,       615,
   61.9247,       594,
   61.9448,       634,
    61.965,       610,
   61.9852,       621,
   62.0054,       627,
   62.0255,       602,
   62.0457,       631,
   62.0659,       575,
    62.086,       596,
   62.1062,       626,
   62.1264,       604,
   62.1465,       643,
   62.1667,       612,
   62.1869,       598,
    62.207,       656,
   62.2272,       627,
   62.2474,       633,
   62.2675,       673,
   62.2877,       638,
   62.3079,       584,
    62.328,       637,
   62.3482,       622,
   62.3684,       628,
   62.3886,       592,
   62.4087,       622,
   62.4289,       620,
   62.4491,       588,
   62.4692,       634,
   62.4894,       613,
   62.5096,       599,
   62.5297,       625,
   62.5499,       603,
   62.5701,       601,
   62.5902,       583,
   62.6104,       615,
   62.6306,       606,
   62.6507,       612,
   62.6709,       617,
   62.6911,       612,
   62.7112,       614,
   62.7314,       624,
   62.7516,       629,
   62.7718,       596,
   62.7919,       599,
   62.8121,       604,
   62.8323,       644,
   62.8524,       581,
   62.8726,       679,
   62.8928,       637,
   62.9129,       573,
   62.9331,       594,
   62.9533,       619,
   62.9734,       631,
   62.9936,       662,
   63.0138,       603,
   63.0339,       644,
   63.0541,       587,
   63.0743,       606,
   63.0945,       619,
   63.1146,       615,
   63.1348,       652,
    63.155,       602,
   63.1751,       622,
   63.1953,       610,
   63.2155,       592,
   63.2356,       596,
   63.2558,       590,
    63.276,       632,
   63.2961,       602,
   63.3163,       642,
   63.3365,       589,
   63.3566,       593,
   63.3768,       612,
    63.397,       633,
   63.4171,       610,
   63.4373,       618,
   63.4575,       607,
   63.4777,       617,
   63.4978,       621,
    63.518,       586,
   63.5382,       598,
   63.5583,       591,
   63.5785,       612,
   63.5987,       578,
   63.6188,       592,
    63.639,       616,
   63.6592,       610,
   63.6793,       601,
   63.6995,       588,
   63.7197,       598,
   63.7398,       593,
     63.76,       594,
   63.7802,       557,
   63.8003,       589,
   63.8205,       636,
   63.8407,       582,
   63.8609,       600,
    63.881,       608,
   63.9012,       643,
   63.9214,       640,
   63.9415,       641,
   63.9617,       589,
   63.9819,       640,
    64.002,       602,
   64.0222,       596,
   64.0424,       614,
   64.0625,       565,
   64.0827,       653,
   64.1029,       637,
    64.123,       545,
   64.1432,       641,
   64.1634,       591,
   64.1836,       650,
   64.2037,       599,
   64.2239,       641,
   64.2441,       603,
   64.2642,       603,
   64.2844,       573,
   64.3046,       613,
   64.3247,       599,
   64.3449,       618,
   64.3651,       617,
   64.3852,       630,
   64.4054,       635,
   64.4256,       577,
   64.4457,       594,
   64.4659,       617,
   64.4861,       562,
   64.5062,       626,
   64.5264,       598,
   64.5466,       642,
   64.5668,       627,
   64.5869,       611,
   64.6071,       592,
   64.6273,       566,
   64.6474,       650,
   64.6676,       607,
   64.6878,       597,
   64.7079,       632,
   64.7281,       631,
   64.7483,       620,
   64.7684,       641,
   64.7886,       580,
   64.8088,       629,
   64.8289,       620,
   64.8491,       598,
   64.8693,       618,
   64.8894,       592,
   64.9096,       603,
   64.9298,       604,
     64.95,       604,
   64.9701,       611,
   64.9903,       597,
   65.0105,       617,
   65.0306,       582,
   65.0508,       611,
    65.071,       625,
   65.0911,       611,
   65.1113,       662,
   65.1315,       596,
   65.1516,       637,
   65.1718,       621,
    65.192,       606,
   65.2121,       594,
   65.2323,       606,
   65.2525,       582,
   65.2727,       663,
   65.2928,       625,
    65.313,       627,
   65.3332,       635,
   65.3533,       609,
   65.3735,       625,
   65.3937,       615,
   65.4138,       610,
    65.434,       610,
   65.4542,       584,
   65.4743,       585,
   65.4945,       588,
   65.5147,       613,
   65.5348,       594,
    65.555,       636,
   65.5752,       568,
   65.5953,       586,
   65.6155,       562,
   65.6357,       630,
   65.6559,       573,
    65.676,       617,
   65.6962,       607,
   65.7164,       631,
   65.7365,       616,
   65.7567,       620,
   65.7769,       617,
    65.797,       606,
   65.8172,       600,
   65.8374,       606,
   65.8575,       634,
   65.8777,       594,
   65.8979,       641,
    65.918,       624,
   65.9382,       643,
   65.9584,       609,
   65.9786,       612,
   65.9987,       651,
   66.0189,       609,
   66.0391,       689,
   66.0592,       657,
   66.0794,       649,
   66.0996,       631,
   66.1197,       612,
   66.1399,       579,
   66.1601,       643,
   66.1802,       602,
   66.2004,       621,
   66.2206,       639,
   66.2407,       574,
   66.2609,       611,
   66.2811,       559,
   66.3012,       623,
   66.3214,       577,
   66.3416,       629,
   66.3618,       560,
   66.3819,       615,
   66.4021,       613,
   66.4223,       568,
   66.4424,       627,
   66.4626,       570,
   66.4828,       614,
   66.5029,       619,
   66.5231,       600,
   66.5433,       603,
   66.5634,       610,
   66.5836,       592,
   66.6038,       641,
   66.6239,       634,
   66.6441,       658,
   66.6643,       614,
   66.6844,       583,
   66.7046,       625,
   66.7248,       596,
    66.745,       619,
   66.7651,       595,
   66.7853,       609,
   66.8055,       649,
   66.8256,       603,
   66.8458,       598,
    66.866,       602,
   66.8861,       591,
   66.9063,       635,
   66.9265,       623,
   66.9466,       596,
   66.9668,       593,
    66.987,       651,
   67.0071,       595,
   67.0273,       565,
   67.0475,       644,
   67.0677,       610,
   67.0878,       609,
    67.108,       624,
   67.1282,       592,
   67.1483,       636,
   67.1685,       611,
   67.1887,       631,
   67.2088,       651,
    67.229,       608,
   67.2492,       609,
   67.2693,       601,
   67.2895,       624,
   67.3097,       595,
   67.3298,       594,
     67.35,       596,
   67.3702,       590,
   67.3903,       584,
   67.4105,       617,
   67.4307,       619,
   67.4509,       613,
    67.471,       621,
   67.4912,       606,
   67.5114,       597,
   67.5315,       582,
   67.5517,       584,
   67.5719,       630,
    67.592,       602,
   67.6122,       597,
   67.6324,       571,
   67.6525,       563,
   67.6727,       569,
   67.6929,       615,
    67.713,       608,
   67.7332,       620,
   67.7534,       612,
   67.7735,       627,
   67.7937,       598,
   67.8139,       599,
   67.8341,       575,
   67.8542,       644,
   67.8744,       555,
   67.8946,       589,
   67.9147,       633,
   67.9349,       554,
   67.9551,       656,
   67.9752,       619,
   67.9954,       632,
   68.0156,       604,
   68.0357,       606,
   68.0559,       616,
   68.0761,       613,
   68.0962,       635,
   68.1164,       609,
   68.1366,       623,
   68.1568,       579,
   68.1769,       590,
   68.1971,       647,
   68.2173,       620,
   68.2374,       600,
   68.2576,       628,
   68.2778,       582,
   68.2979,       565,
   68.3181,       617,
   68.3383,       632,
   68.3584,       632,
   68.3786,       575,
   68.3988,       619,
   68.4189,       623,
   68.4391,       607,
   68.4593,       589,
   68.4794,       568,
   68.4996,       605,
   68.5198,       624,
     68.54,       618,
   68.5601,       606,
   68.5803,       632,
   68.6005,       565,
   68.6206,       593,
   68.6408,       605,
    68.661,       598,
   68.6811,       587,
   68.7013,       645,
   68.7215,       588,
   68.7416,       589,
   68.7618,       610,
    68.782,       614,
   68.8021,       603,
   68.8223,       616,
   68.8425,       607,
   68.8626,       623,
   68.8828,       601,
    68.903,       628,
   68.9232,       624,
   68.9433,       658,
   68.9635,       622,
   68.9837,       622,
   69.0038,       610,
    69.024,       609,
   69.0442,       593,
   69.0643,       591,
   69.0845,       665,
   69.1047,       642,
   69.1248,       590,
    69.145,       601,
   69.1652,       635,
   69.1853,       602,
   69.2055,       592,
   69.2257,       573,
   69.2459,       615,
    69.266,       633,
   69.2862,       635,
   69.3064,       588,
   69.3265,       587,
   69.3467,       590,
   69.3669,       616,
    69.387,       617,
   69.4072,       610,
   69.4274,       614,
   69.4475,       637,
   69.4677,       578,
   69.4879,       585,
    69.508,       611,
   69.5282,       607,
   69.5484,       598,
   69.5685,       591,
   69.5887,       580,
   69.6089,       604,
   69.6291,       561,
   69.6492,       610,
   69.6694,       610,
   69.6896,       621,
   69.7097,       589,
   69.7299,       628,
   69.7501,       608,
   69.7702,       631,
   69.7904,       627,
   69.8106,       607,
   69.8307,       614,
   69.8509,       612,
   69.8711,       609,
   69.8912,       585,
   69.9114,       590,
   69.9316,       628,
   69.9517,       608,
   69.9719,       556,
   69.9921,       578,
   70.0123,       649,
   70.0324,       640,
   70.0526,       569,
   70.0728,       605,
   70.0929,       604,
   70.1131,       642,
   70.1333,       590,
   70.1534,       604,
   70.1736,       612,
   70.1938,       583,
   70.2139,       610,
   70.2341,       635,
   70.2543,       636,
   70.2744,       648,
   70.2946,       627,
   70.3148,       587,
    70.335,       581,
   70.3551,       597,
   70.3753,       551,
   70.3955,       611,
   70.4156,       642,
   70.4358,       589,
    70.456,       681,
   70.4761,       581,
   70.4963,       597,
   70.5165,       616,
   70.5366,       602,
   70.5568,       630,
    70.577,       579,
   70.5971,       586,
   70.6173,       636,
   70.6375,       596,
   70.6576,       582,
   70.6778,       618,
    70.698,       646,
   70.7182,       547,
   70.7383,       598,
   70.7585,       616,
   70.7787,       579,
   70.7988,       607,
    70.819,       590,
   70.8392,       610,
   70.8593,       537,
   70.8795,       602,
   70.8997,       655,
   70.9198,       621,
     70.94,       622,
   70.9602,       637,
   70.9803,       637,
   71.0005,       630,
   71.0207,       605,
   71.0409,       602,
    71.061,       600,
   71.0812,       641,
   71.1014,       588,
   71.1215,       590,
   71.1417,       604,
   71.1619,       619,
    71.182,       631,
   71.2022,       599,
   71.2224,       626,
   71.2425,       611,
   71.2627,       584,
   71.2829,       585,
    71.303,       616,
   71.3232,       600,
   71.3434,       618,
   71.3635,       631,
   71.3837,       600,
   71.4039,       614,
   71.4241,       641,
   71.4442,       607,
   71.4644,       631,
   71.4846,       635,
   71.5047,       611,
   71.5249,       660,
   71.5451,       654,
   71.5652,       630,
   71.5854,       631,
   71.6056,       615,
   71.6257,       669,
   71.6459,       602,
   71.6661,       623,
   71.6862,       603,
   71.7064,       635,
   71.7266,       661,
   71.7467,       639,
   71.7669,       657,
   71.7871,       604,
   71.8073,       619,
   71.8274,       625,
   71.8476,       647,
   71.8678,       645,
   71.8879,       610,
   71.9081,       603,
   71.9283,       646,
   71.9484,       600,
   71.9686,       591,
   71.9888,       624,
   72.0089,       663,
   72.0291,       617,
   72.0493,       657,
   72.0694,       627,
   72.0896,       673,
   72.1098,       646,
     72.13,       644,
   72.1501,       633,
   72.1703,       625,
   72.1905,       634,
   72.2106,       623,
   72.2308,       643,
    72.251,       653,
   72.2711,       605,
   72.2913,       676,
   72.3115,       612,
   72.3316,       635,
   72.3518,       650,
    72.372,       636,
   72.3921,       662,
   72.4123,       597,
   72.4325,       629,
   72.4526,       599,
   72.4728,       644,
    72.493,       613,
   72.5132,       593,
   72.5333,       587,
   72.5535,       669,
   72.5737,       608,
   72.5938,       647,
    72.614,       628,
   72.6342,       638,
   72.6543,       640,
   72.6745,       643,
   72.6947,       628,
   72.7148,       647,
    72.735,       682,
   72.7552,       640,
   72.7753,       660,
   72.7955,       606,
   72.8157,       654,
   72.8358,       620,
    72.856,       608,
   72.8762,       621,
   72.8964,       634,
   72.9165,       597,
   72.9367,       643,
   72.9569,       654,
    72.977,       641,
   72.9972,       641,
   73.0174,       637,
   73.0375,       605,
   73.0577,       577,
   73.0779,       644,
    73.098,       588,
   73.1182,       644,
   73.1384,       610,
   73.1585,       637,
   73.1787,       594,
   73.1989,       671,
   73.2191,       617,
   73.2392,       634,
   73.2594,       644,
   73.2796,       657,
   73.2997,       651,
   73.3199,       671,
   73.3401,       627,
   73.3602,       627,
   73.3804,       647,
   73.4006,       630,
   73.4207,       636,
   73.4409,       635,
   73.4611,       694,
   73.4812,       665,
   73.5014,       640,
   73.5216,       667,
   73.5417,       658,
   73.5619,       693,
   73.5821,       664,
   73.6023,       621,
   73.6224,       704,
   73.6426,       699,
   73.6628,       695,
   73.6829,       738,
   73.7031,       715,
   73.7233,       715,
   73.7434,       747,
   73.7636,       775,
   73.7838,       798,
   73.8039,       856,
   73.8241,       871,
   73.8443,       897,
   73.8644,       886,
   73.8846,       862,
   73.9048,       907,
   73.9249,       926,
   73.9451,       960,
   73.9653,      1027,
   73.9855,      1071,
   74.0056,      1159,
   74.0258,      1299,
    74.046,      1517,
   74.0661,      1949,
   74.0863,      2743,
   74.1065,      3872,
   74.1266,      6642,
   74.1468,     10107,
    74.167,     12688,
   74.1871,     11077,
   74.2073,      7343,
   74.2275,      4456,
   74.2476,      3136,
   74.2678,      2348,
    74.288,      2160,
   74.3082,      2358,
   74.3283,      3120,
   74.3485,      4365,
   74.3687,      6147,
   74.3888,      6542,
    74.409,      5492,
   74.4292,      3644,
   74.4493,      2434,
   74.4695,      1695,
   74.4897,      1323,
   74.5098,      1211,
     74.53,      1063,
   74.5502,       981,
   74.5703,       880,
   74.5905,       830,
   74.6107,       853,
   74.6308,       808,
    74.651,       806,
   74.6712,       829,
   74.6914,       773,
   74.7115,       744,
   74.7317,       722,
   74.7519,       672,
    74.772,       730,
   74.7922,       672,
   74.8124,       685,
   74.8325,       701,
   74.8527,       697,
   74.8729,       659,
    74.893,       696,
   74.9132,       709,
   74.9334,       701,
   74.9535,       706,
   74.9737,       671,
   74.9939,       681,
    75.014,       648,
   75.0342,       616,
   75.0544,       605,
   75.0746,       641,
   75.0947,       685,
   75.1149,       625,
   75.1351,       630,
   75.1552,       685,
   75.1754,       594,
   75.1956,       620,
   75.2157,       639,
   75.2359,       641,
   75.2561,       645,
   75.2762,       647,
   75.2964,       611,
   75.3166,       656,
   75.3367,       656,
   75.3569,       618,
   75.3771,       636,
   75.3973,       635,
   75.4174,       605,
   75.4376,       627,
   75.4578,       616,
   75.4779,       608,
   75.4981,       627,
   75.5183,       685,
   75.5384,       669,
   75.5586,       649,
   75.5788,       673,
   75.5989,       684,
   75.6191,       645,
   75.6393,       652,
   75.6594,       624,
   75.6796,       661,
   75.6998,       618,
   75.7199,       657,
   75.7401,       610,
   75.7603,       641,
   75.7805,       649,
   75.8006,       607,
   75.8208,       635,
    75.841,       577,
   75.8611,       553,
   75.8813,       647,
   75.9015,       623,
   75.9216,       625,
   75.9418,       614,
    75.962,       642,
   75.9821,       629,
   76.0023,       642,
   76.0225,       601,
   76.0426,       626,
   76.0628,       673,
    76.083,       616,
   76.1032,       612,
   76.1233,       604,
   76.1435,       628,
   76.1637,       615,
   76.1838,       658,
    76.204,       683,
   76.2242,       634,
   76.2443,       647,
   76.2645,       618,
   76.2847,       629,
   76.3048,       650,
    76.325,       630,
   76.3452,       611,
   76.3653,       614,
   76.3855,       616,
   76.4057,       650,
   76.4258,       588,
    76.446,       619,
   76.4662,       596,
   76.4864,       587,
   76.5065,       634,
   76.5267,       654,
   76.5469,       636,
    76.567,       601,
   76.5872,       601,
   76.6074,       605,
   76.6275,       628,
   76.6477,       670,
   76.6679,       625,
    76.688,       643,
   76.7082,       596,
   76.7284,       614,
   76.7485,       627,
   76.7687,       622,
   76.7889,       620,
    76.809,       610,
   76.8292,       629,
   76.8494,       606,
   76.8696,       639,
   76.8897,       606,
   76.9099,       608,
   76.9301,       581,
   76.9502,       653,
   76.9704,       627,
   76.9906,       618,
   77.0107,       549,
   77.0309,       601,
   77.0511,       639,
   77.0712,       619,
   77.0914,       643,
   77.1116,       597,
   77.1317,       613,
   77.1519,       632,
   77.1721,       605,
   77.1923,       628,
   77.2124,       599,
   77.2326,       617,
   77.2528,       628,
   77.2729,       582,
   77.2931,       646,
   77.3133,       585,
   77.3334,       626,
   77.3536,       620,
   77.3738,       622,
   77.3939,       604,
   77.4141,       696,
   77.4343,       632,
   77.4544,       652,
   77.4746,       616,
   77.4948,       626,
   77.5149,       613,
   77.5351,       604,
   77.5553,       585,
   77.5755,       650,
   77.5956,       609,
   77.6158,       587,
    77.636,       646,
   77.6561,       638,
   77.6763,       572,
   77.6965,       584,
   77.7166,       622,
   77.7368,       591,
    77.757,       583,
   77.7771,       614,
   77.7973,       628,
   77.8175,       624,
   77.8376,       592,
   77.8578,       595,
    77.878,       629,
   77.8981,       695,
   77.9183,       628,
   77.9385,       646,
   77.9587,       580,
   77.9788,       584,
    77.999,       597,
