;RAW4.00
[RawHeader]
Date=11/26/2025
EstimatedTotalTime=426.6
FurtherDQLReading=0
HardwareIndicator=65519
MeasuredTotalTime=4.29548
MeasurementFlag=1
NumberOfMeasuredRanges=1
NumberOfRanges=1
Time=12:30:35

[VarInfo]
Type=USER
Flags=0
Value=Lab Manager

[VarInfo]
Type=SAMPLEID
Flags=0
Value=Commander Sample ID

[VarInfo]
Type=COMMENT
Flags=0
Value=

[VarInfo]
Type=UTF
Flags=0
Value=

[VarInfo]
Type=CREATOR
Flags=0
Value=V5Converter

[VarInfo]
Type=CREATOR_VERSION
Flags=0
Value=4.4.16.0

[HardwareConfiguration]
AbsorptionFactor=9999
ActivateAbsorber=0
Alpha1=1.5406
Alpha2=1.54439
AlphaAverage=1.54184
AlphaRatio=0.5
Analyzer=0
Anode=Cu
AntiScatteringSlit=9999
BeamOpticsFlags=0
Beta=1.39222
BetaRelativeIntensity=0
DeactivateAbsorber=0
DetectorSlit=9999
DivergenceSlit=9999
GoniometerControl=0
GoniometerDiameter=282
GoniometerModel=256
GoniometerStage=7
Monochromator=0
NearSampleSlit=9999
PrimarySollerSlit=9999
SampleChanger=0
SecondSollerSlit=9999
SynchronousAxis=0
ThinFilmAttachment=9999
WaveUnit=A

[RangeHeader]
ActuallyUsedLambda=1.54184
AdditionalDetectorMask=257
DataRecordLength=4
DelayTime=0
DisplayPlaneNumber=0
EstimatedScanTime=427
ExtraParametersMask=0
GeneratorCurrent=10
GeneratorVoltage=30
Increment=0.0201685
Increment3=0
NumberOfCompletedData=1885
NumberOfCounts=1
NumberOfDetectors=0
NumberOfDrives=3
NumberOfEncoderDrives=0
NumberOfMeasuredData=1885
NumberOfVaryingParameters=0
RangeStartTime=0
RotationSpeed=0
ScanMode=1
ScanType=Locked Coupled
SimulatedMeasConditions=0
SlitChangerIn=0
SmootingWidth=0
Start=40.0015
Steps=1885
SynchronousRotation=0
Time=33

[VarInfo]
Type=PSD_DISCRIM
Flags=0
Value=0.11;0.5

[VarInfo]
Type=OPTICS_V5
Flags=0
Value=H4sIAAAAAAAEAO1d63KjOhJ+Fda/zqmtBIPtXKaITzm2J+OaOHbFTnKmtrZcBORYZzC4AOey//d99hl2X2x1QViIS8C3JBN+TCaodWm6+2vUUkfS/nieW9IjcD3o2GcV5bBakYBtOCa0H84qS396oBxV/mhqF44NnTnwgdt25gvHBrbf0X1dQq1t78uzB88qM99ffJHlp6enw6faoeM+yGq1qsh/9i9HxgzM9QNoe75uG6AStjJfb1WRbqEH7y1wpc/BWWXFR0joAM9w4cInL/Bj4UHLsSW+3oXrLBc9NBZ6t3Pgojcb3P8FDH+o+7OzitwBj9AAMt+CrxUfl1Lblu55QRehTORzoM8XqLDt2L4ObeBy/coBc6yHluEvdYtxoR6o1ePT02O5h8TkLue4tzhrTW2EZGjqqBswQr3oFvyXjl+9OdUtD2hyGln7c259hcAyrwHqHhq4EDFpA/KbJ8lNjfKD1ToCFipvdm00JDA1OUbR6Btwou9Ab2HpL824AjQ5tXK8m+bF4OrHhPzodEft64TGrBVWDOsoPhpP1bBWhrxWvISy1r0hIUP+4r8skMLHrm78xG8sGODQhXPdfSHkZBMMakgD9GxISBvSeHkPOIFIQeOidilHx44baRI9r5mSRmyEDSxUYBJZ3blu/xy4JnCvAfYzAL0wsdX3b8s5NVnMwIfj6+8T9KPV/l7IxHm5Jhp5z0OvBh9BE+kGCS98DAk920dCZMIVSikeHA9SJulgmhwp1bAq2ZMXfZT4B2LSAxc+QFu3ogSlwl6OWi7Ssb/0moPwnSLFGmsYPPedJdIj0qJQrgWE0MJ5JCOdEXICmjFtjmnJUA7J0tRxpRHQLUBtYA3AytxYcejGiMm4JZa46kmmLG0LrhEWBa3xcus++8A2MZDfDYZpCWdMkQKtj5nwHfcltGVFk+OFGseMJxH2qHoYWND7cnJosmJN5ku1uCnh1+H65qyTKx3Y545jAR1NEG5s6BPpdiDSG56bXcI59IlYwiKvWdVk7knrgKm+tPxb3VoCboigVyQ96CPXTshnFewlKri/oQta5l9LD8GnYEuZYx67mbHTJoqe6ZblPK0cjVCOarZnwPgJzFUVVqC1ESPOHKsWvx33pNH5Zl7erhEyxkg2xVq1lr7TdoHug6HrLIDrvzAWEyiR9/eIRfdMhLKr5fweuE21rslCEdaQRS08UPF//xMyUSUc9B0TNG8Quqbos4xMnTwz90Y+PzEHluy7tuWt5HgP/ND5vNXOHBXjLvaN2aNbYuh5A79Evm3IJvErCL6JJ23LP418rD3OPSHRTOHDEjnla/gw85sIdabECnU0BoKwUKWYS+vrz5fAfvBnTbXRwKJhj2nOjrJISkNktZevObqMVm/q5DL4SnFwGS02cm5pFninPwKqkpa1mOmKYIUieVuWOJh2nCVqyWzxf//ehzWm2Nxw9uJBQ7dIeQJnTA/KYaNePXrNFtfo7ca2MPfItOjcf/WMZelYS+paugfVBtErK9H60Ibz5bx5oBwenx4fndaUWv3kSK0pjePu32vVE4S4oAZGIvklvWZQ4W0Rs4b0UpC0Rk/7QJiajTD10yOsXjvdJsRYdyXGNhLfFkDGuto1yh6Bqz+IoV6M/ulxppzUt4kz1l2Js43EtwWcsa52jLNz4OupIMPET46w2qmqqttD2Kq7EmEbiW9jhK262jHCrvGaRirECHVXGHuvCFutth02NsJWrKMSVWsKbh08xTrZCZK+OsbSG7gQ2D5ZHRSgJJK3tspG1g4H057tH9XfH6CibEVXr/OjKbkXhfRCBYDfqOeDOWLs0nmABl3VvJn0rm5bl73OpP2tN9TkFYkJfAye/WbPftQtiMQzg4uVjCJaIvW07+CFjI1lEf6uyTEWsnm67F2lsnIJbSARW0kbWtlk6OEgY+yhA20/e3B1k8GZLoaD0auqCHeKD6S58wgk35HmwJjpNrYKCTmTxd/SeKxl8/ienF2WXefzdFk9bOTm6N5Lz546UqiqhAVciZbr3FOQY3BWIVUkVBrdJr+ZtC6H31rRcrGRhEeyyEjkXXKxo0bYURPZUVPYUbPYUQuzEywL8PxEyoQBQloib5PW7UUWe0HrokySmCrg8D78PeybkkWGzrvjVjIvuH4+FiIbUQEDqBXeyxN46LJSkY3uZbffvRqnSMV2TCAFbaXVSDlkQmfBvNq4EkHsASVZZdetcW+QpTTSOp+8YlOLgL9pYnk4ToQicvl10J4MrpMZJONJkeZyfMe6Ed+xvgA2skTfcYU8TFacvPmcsQFLZ8dr7r82tXQiP3O7dSw/voYXlO4q5vl5u6WEjcypLxqFfRNqVSHyCL4FKaFHctihVBMCjFp1f7FErbF+MBEXRsEvZLo55TW19tJ1sT+LmlpQuitTm7f2YWpolHD6sQ1TaySFsh/E0uKy2LulDZ0nkgHOmxQp25WV3aUEnW+xcHMnRJr5lluqhymm+EkWW+4491hde7Ul3ssWbV9+7YtfJA0UTQyNGXBfyVbbPA8ud74bklUw60j9YgWfilQ/I4dzraYmBmuZ2QhiKJW9qxqLdLI3h6IxR/YytzAXT1vD42MIIXVJnC4nR8cylyaJ7OZRhxZeJcCPHu2eWH2ZQFkmUJYJlGUCZZlA+fE2xcsEyvezJV4mUP6aCCsTKN8TxsoEyl8VZ2UC5XvCWZlA+ashrEygfE8IKxMoywTKMoGyTKAsEyjLBMoygbJMoCwTKMsEyjKBskygLBMoywTKMoGyTKAsEyjLBMoygbJMoHzr+KNMoCwTKD9tAiXLkUS/iumT7KzT+Cmg4tm7GScqd+cL/4UkG4arGcVOT+72h4PRhP4scnoyGTg0xcTzk2U+BzLzcGMl7XBjde+HGw8WbefceR5MR45lATfhiGNKyDjkmKsg/WbotmTQQ8ElNJZEifQE7N/XgX9k+LhXSSBnuYaE6hunwkb7FPSZfOxxRGTIPPKL8PePe2KymphYK0bAR+scevtxXAin6Q2diJrmRGpv50S+wmdgEkNlcw/RmVjQz3IliCz1U2CAaRv4kdXICV5EJGb6ELHy5h6E61FQZYr/YA2o98gntQ/sOmq5XMfxeudlE7OmVzSsTJpYMhZe0hcRy1SR/jGf/zPDjH/DR/7fA2QfErQ9hAVgol98R9I5hWWaMq5mhBds4KeJUp0oaQYcIb5mwIVtN52ZmPP5qH/5US30lx930PRnYm4HLtvZktP8/WxBxzgL44DNsuvjPeVdZqh+7nWGuODWWWeI97KTtI5vABumgB1a+LnBszXslNBZz+i3gpzt3wSirjOzGenzhQXuZgBYY/QC/KUgIkkjH65UJ0ChmfamMj+F+lCxGJtFbxiJ1dIisfpGkRjhMR6HvT9h3thLD5hkeHHgLInKwm1g17oJl16CldWVYB+fXrg3mE494KdZfesZevz3Iay2B1ceYybnbh1ywVU1LSlVPTypn6qNRkNN8LvHjcOTRv24dqQqvK8VhNAM7mETbitc+w7DEUCRgJl9i2FYh7v9roNCXwNnMmzhLkORh4SYKLFGsfsMwz42ifVFRj70nYaF9FrM/4zwzYaj4jcbRuW787sNw+F2cbvhyRss3uHlOks3wMyxzMQtgMsX+xm8pBxzcfnj6s/ujy654bCjSsOZ7olX4OYEsRyOEwezQMpa3mDWKOO8X3k4Wj2jProvYAvX6KYzLmrzl7v28CTPUlxNiU9Yi8wL0ecUu0XdWrmWfniNJk2pxn6HJHazGl4xZ9PpjyfkXwFHw4ba6R6gstmscZebgP09bgIKCIswkLYN2N/zNmAmj6JSs3YC+59rJ1Cp53Ii1c+wFVhGSkUjpbRAqXF4dHrSUJRqPWmBqqEcHldP68dqfQeB0sontAHGieA9hcKI4+SmzLSadMAw70kjnLfkkW8dVkPLMIDnOS4E3hoRE+Mi7j2jlLwRUvyl1/ekrIcPHRqtqcpiLudicNWekB9FHA7lZ+eh0Ri4qHQnkdHp3mdFwxkkShPAfO0EGXBRYgTUqKlErdE1Wb0CGJXZGHSdNqGDKCsJ1TJnP6vqMuJUZpxuDuAUxgVFpsREEgUYMFu+rxszPNBZ5WDPRwluc5pzmitr4SQ+y+l5TBQhKMMCjfMcZLfIWj48ALPjYkzSv8ZE3eHvWs9sIu2S3oNHTCEVRwtgwGnwt6KsUpyC4BLvvcgEK46DYs5u+K03mpAfRZxdFKHbnGBVi0yvQisOP5lEYfRDEPwf22IqXU7pckqXI7qcECvsd+8VLsZPznhGTjB6jZVIzZz8ZA+dc9yig6ZEJvFifFQxXo8YAd9H0PIkfi6GHAXNPKxILbzB7vVR6AbplI5NtLGOuVT/5i2e1Rn4EFu+VFtBkewhB6uqmiyUa3yqI/WAkWUTj/6JxSqYYK6D6Pv/u9RXv2COAAA=

[PSD]
ActualTwoTheta=9999
FirstUsedChannel=0
FixedPSD=0
PSDOpening=4.99171
PSDType=5

[Drive]
DriveFlags=1
DriveName=2Theta
DriveNumber=2
DriveOffset=0
OffsetIndex=0
OscillationAmplitude=0
OscillationSpeed=0
StartPosition=40.0015

[Drive]
DriveFlags=1
DriveName=Theta
DriveNumber=1
DriveOffset=0
OffsetIndex=0
OscillationAmplitude=0
OscillationSpeed=0
StartPosition=20.0007

[Drive]
DriveFlags=1
DriveName=Phi
DriveNumber=3
DriveOffset=0
OffsetIndex=0
OscillationAmplitude=0
OscillationSpeed=0
StartPosition=0

[Data]
     Angle,       PSD,
   40.0015,       665,
   40.0217,       648,
   40.0418,       685,
    40.062,       640,
   40.0822,       642,
   40.1023,       647,
   40.1225,       663,
   40.1427,       642,
   40.1628,       643,
    40.183,       639,
   40.2032,       652,
   40.2233,       645,
   40.2435,       656,
   40.2637,       630,
   40.2838,       645,
    40.304,       660,
   40.3242,       672,
   40.3444,       649,
   40.3645,       622,
   40.3847,       638,
   40.4049,       630,
    40.425,       634,
   40.4452,       606,
   40.4654,       643,
   40.4855,       673,
   40.5057,       700,
   40.5259,       648,
    40.546,       638,
   40.5662,       637,
   40.5864,       610,
   40.6065,       655,
   40.6267,       630,
   40.6469,       644,
   40.6671,       611,
   40.6872,       698,
   40.7074,       619,
   40.7276,       645,
   40.7477,       645,
   40.7679,       698,
   40.7881,       656,
   40.8082,       651,
   40.8284,       649,
   40.8486,       656,
   40.8687,       648,
   40.8889,       637,
   40.9091,       697,
   40.9292,       620,
   40.9494,       607,
   40.9696,       676,
   40.9897,       669,
   41.0099,       674,
   41.0301,       700,
   41.0503,       641,
   41.0704,       642,
   41.0906,       672,
   41.1108,       700,
   41.1309,       616,
   41.1511,       619,
   41.1713,       649,
   41.1914,       687,
   41.2116,       696,
   41.2318,       713,
   41.2519,       669,
   41.2721,       652,
   41.2923,       651,
   41.3124,       689,
   41.3326,       684,
   41.3528,       668,
   41.3729,       646,
   41.3931,       666,
   41.4133,       616,
   41.4335,       696,
   41.4536,       652,
   41.4738,       638,
    41.494,       669,
   41.5141,       639,
   41.5343,       660,
   41.5545,       634,
   41.5746,       670,
   41.5948,       637,
    41.615,       661,
   41.6351,       617,
   41.6553,       639,
   41.6755,       598,
   41.6956,       681,
   41.7158,       652,
    41.736,       678,
   41.7562,       612,
   41.7763,       648,
   41.7965,       632,
   41.8167,       608,
   41.8368,       688,
    41.857,       663,
   41.8772,       690,
   41.8973,       711,
   41.9175,       727,
   41.9377,       740,
   41.9578,       799,
    41.978,       815,
   41.9982,       790,
   42.0183,       773,
   42.0385,       745,
   42.0587,       757,
   42.0788,       760,
    42.099,       724,
   42.1192,       783,
   42.1394,       761,
   42.1595,       760,
   42.1797,       817,
   42.1999,       749,
     42.22,       752,
   42.2402,       783,
   42.2604,       797,
   42.2805,       738,
   42.3007,       745,
   42.3209,       782,
    42.341,       792,
   42.3612,       785,
   42.3814,       777,
   42.4015,       769,
   42.4217,       800,
   42.4419,       785,
    42.462,       817,
   42.4822,       830,
   42.5024,       762,
   42.5226,       766,
   42.5427,       778,
   42.5629,       814,
   42.5831,       777,
   42.6032,       792,
   42.6234,       781,
   42.6436,       789,
   42.6637,       784,
   42.6839,       770,
   42.7041,       785,
   42.7242,       763,
   42.7444,       822,
   42.7646,       831,
   42.7847,       861,
   42.8049,       831,
   42.8251,       846,
   42.8453,       817,
   42.8654,       786,
   42.8856,       824,
   42.9058,       848,
   42.9259,       848,
   42.9461,       917,
   42.9663,       913,
   42.9864,      1010,
   43.0066,      1018,
   43.0268,      1036,
   43.0469,      1164,
   43.0671,      1135,
   43.0873,      1241,
   43.1074,      1207,
   43.1276,      1351,
   43.1478,      1375,
   43.1679,      1450,
   43.1881,      1468,
   43.2083,      1575,
   43.2285,      1854,
   43.2486,      1990,
   43.2688,      2113,
    43.289,      2323,
   43.3091,      2458,
   43.3293,      2735,
   43.3495,      3450,
   43.3696,      4718,
   43.3898,      7884,
     43.41,     17073,
   43.4301,     37201,
   43.4503,     58972,
   43.4705,     54263,
   43.4906,     30391,
   43.5108,     16388,
    43.531,     16578,
   43.5511,     26050,
   43.5713,     31930,
   43.5915,     23770,
   43.6117,     11943,
   43.6318,      5782,
    43.652,      3670,
   43.6722,      2855,
   43.6923,      2393,
   43.7125,      2051,
   43.7327,      1880,
   43.7528,      1686,
    43.773,      1556,
   43.7932,      1492,
   43.8133,      1352,
   43.8335,      1291,
   43.8537,      1178,
   43.8738,      1189,
    43.894,      1133,
   43.9142,      1029,
   43.9344,       914,
   43.9545,       917,
   43.9747,       981,
   43.9949,       901,
    44.015,       892,
   44.0352,       842,
   44.0554,       853,
   44.0755,       841,
   44.0957,       930,
   44.1159,       891,
    44.136,       835,
   44.1562,       879,
   44.1764,       780,
   44.1965,       825,
   44.2167,       851,
   44.2369,       813,
    44.257,       802,
   44.2772,       802,
   44.2974,       738,
   44.3176,       749,
   44.3377,       780,
   44.3579,       789,
   44.3781,       835,
   44.3982,       791,
   44.4184,       752,
   44.4386,       759,
   44.4587,       769,
   44.4789,       800,
   44.4991,       731,
   44.5192,       809,
   44.5394,       820,
   44.5596,       785,
   44.5797,       744,
   44.5999,       776,
   44.6201,       737,
   44.6402,       745,
   44.6604,       745,
   44.6806,       733,
   44.7008,       765,
   44.7209,       736,
   44.7411,       751,
   44.7613,       770,
   44.7814,       768,
   44.8016,       743,
   44.8218,       716,
   44.8419,       706,
   44.8621,       714,
   44.8823,       759,
   44.9024,       708,
   44.9226,       717,
   44.9428,       763,
   44.9629,       715,
   44.9831,       751,
   45.0033,       725,
   45.0235,       691,
   45.0436,       705,
   45.0638,       783,
    45.084,       724,
   45.1041,       714,
   45.1243,       770,
   45.1445,       690,
   45.1646,       762,
   45.1848,       734,
    45.205,       751,
   45.2251,       734,
   45.2453,       730,
   45.2655,       750,
   45.2856,       754,
   45.3058,       750,
    45.326,       677,
   45.3461,       721,
   45.3663,       705,
   45.3865,       737,
   45.4067,       731,
   45.4268,       733,
    45.447,       726,
   45.4672,       752,
   45.4873,       767,
   45.5075,       720,
   45.5277,       672,
   45.5478,       710,
    45.568,       751,
   45.5882,       724,
   45.6083,       744,
   45.6285,       705,
   45.6487,       729,
   45.6688,       730,
    45.689,       738,
   45.7092,       692,
   45.7294,       746,
   45.7495,       699,
   45.7697,       735,
   45.7899,       701,
     45.81,       723,
   45.8302,       693,
   45.8504,       738,
   45.8705,       750,
   45.8907,       738,
   45.9109,       723,
    45.931,       729,
   45.9512,       730,
   45.9714,       740,
   45.9915,       745,
   46.0117,       713,
   46.0319,       700,
    46.052,       695,
   46.0722,       703,
   46.0924,       694,
   46.1126,       722,
   46.1327,       678,
   46.1529,       706,
   46.1731,       666,
   46.1932,       741,
   46.2134,       661,
   46.2336,       652,
   46.2537,       618,
   46.2739,       672,
   46.2941,       707,
   46.3142,       712,
   46.3344,       696,
   46.3546,       681,
   46.3747,       750,
   46.3949,       669,
   46.4151,       721,
   46.4352,       696,
   46.4554,       708,
   46.4756,       694,
   46.4958,       695,
   46.5159,       687,
   46.5361,       695,
   46.5563,       666,
   46.5764,       715,
   46.5966,       637,
   46.6168,       693,
   46.6369,       668,
   46.6571,       704,
   46.6773,       671,
   46.6974,       710,
   46.7176,       715,
   46.7378,       684,
   46.7579,       660,
   46.7781,       671,
   46.7983,       717,
   46.8185,       733,
   46.8386,       716,
   46.8588,       651,
    46.879,       674,
   46.8991,       726,
   46.9193,       717,
   46.9395,       720,
   46.9596,       729,
   46.9798,       696,
        47,       702,
   47.0201,       721,
   47.0403,       711,
   47.0605,       714,
   47.0806,       662,
   47.1008,       665,
    47.121,       656,
   47.1411,       710,
   47.1613,       704,
   47.1815,       664,
   47.2017,       671,
   47.2218,       642,
    47.242,       676,
   47.2622,       696,
   47.2823,       660,
   47.3025,       667,
   47.3227,       700,
   47.3428,       675,
    47.363,       661,
   47.3832,       653,
   47.4033,       653,
   47.4235,       699,
   47.4437,       695,
   47.4638,       665,
    47.484,       649,
   47.5042,       679,
   47.5243,       713,
   47.5445,       725,
   47.5647,       693,
   47.5849,       684,
    47.605,       687,
   47.6252,       649,
   47.6454,       724,
   47.6655,       693,
   47.6857,       687,
   47.7059,       662,
    47.726,       652,
   47.7462,       649,
   47.7664,       661,
   47.7865,       693,
   47.8067,       697,
   47.8269,       711,
    47.847,       715,
   47.8672,       675,
   47.8874,       706,
   47.9076,       665,
   47.9277,       649,
   47.9479,       693,
   47.9681,       714,
   47.9882,       683,
   48.0084,       701,
   48.0286,       691,
   48.0487,       717,
   48.0689,       632,
   48.0891,       647,
   48.1092,       668,
   48.1294,       651,
   48.1496,       649,
   48.1697,       674,
   48.1899,       658,
   48.2101,       677,
   48.2302,       640,
   48.2504,       687,
   48.2706,       630,
   48.2908,       692,
   48.3109,       678,
   48.3311,       669,
   48.3513,       667,
   48.3714,       678,
   48.3916,       639,
   48.4118,       653,
   48.4319,       701,
   48.4521,       665,
   48.4723,       644,
   48.4924,       640,
   48.5126,       670,
   48.5328,       668,
   48.5529,       706,
   48.5731,       660,
   48.5933,       659,
   48.6134,       676,
   48.6336,       708,
   48.6538,       653,
    48.674,       698,
   48.6941,       662,
   48.7143,       726,
   48.7345,       655,
   48.7546,       705,
   48.7748,       689,
    48.795,       661,
   48.8151,       708,
   48.8353,       720,
   48.8555,       701,
   48.8756,       699,
   48.8958,       687,
    48.916,       706,
   48.9361,       730,
   48.9563,       657,
   48.9765,       702,
   48.9967,       729,
   49.0168,       722,
    49.037,       676,
   49.0572,       680,
   49.0773,       712,
   49.0975,       679,
   49.1177,       679,
   49.1378,       628,
    49.158,       665,
   49.1782,       678,
   49.1983,       737,
   49.2185,       737,
   49.2387,       709,
   49.2588,       716,
    49.279,       671,
   49.2992,       714,
   49.3193,       684,
   49.3395,       709,
   49.3597,       638,
   49.3799,       690,
      49.4,       675,
   49.4202,       709,
   49.4404,       690,
   49.4605,       713,
   49.4807,       709,
   49.5009,       700,
    49.521,       687,
   49.5412,       642,
   49.5614,       673,
   49.5815,       664,
   49.6017,       705,
   49.6219,       719,
    49.642,       705,
   49.6622,       743,
   49.6824,       693,
   49.7025,       705,
   49.7227,       738,
   49.7429,       712,
   49.7631,       739,
   49.7832,       731,
   49.8034,       722,
   49.8236,       718,
   49.8437,       708,
   49.8639,       698,
   49.8841,       722,
   49.9042,       736,
   49.9244,       727,
   49.9446,       718,
   49.9647,       699,
   49.9849,       722,
   50.0051,       781,
   50.0252,       734,
   50.0454,       759,
   50.0656,       761,
   50.0858,       784,
   50.1059,       736,
   50.1261,       759,
   50.1463,       793,
   50.1664,       805,
   50.1866,       826,
   50.2068,       812,
   50.2269,       833,
   50.2471,       901,
   50.2673,       875,
   50.2874,       983,
   50.3076,       992,
   50.3278,       990,
   50.3479,      1044,
   50.3681,      1060,
   50.3883,      1185,
   50.4084,      1227,
   50.4286,      1258,
   50.4488,      1506,
    50.469,      1686,
   50.4891,      2119,
   50.5093,      3054,
   50.5295,      4660,
   50.5496,      7378,
   50.5698,     10744,
     50.59,     11590,
   50.6101,      9612,
   50.6303,      6619,
   50.6505,      4819,
   50.6706,      4503,
   50.6908,      5702,
    50.711,      6429,
   50.7311,      6310,
   50.7513,      4734,
   50.7715,      3208,
   50.7917,      2200,
   50.8118,      1656,
    50.832,      1299,
   50.8522,      1249,
   50.8723,      1127,
   50.8925,      1090,
   50.9127,       958,
   50.9328,       966,
    50.953,       920,
   50.9732,       910,
   50.9933,       849,
   51.0135,       854,
   51.0337,       839,
   51.0538,       791,
    51.074,       774,
   51.0942,       725,
   51.1143,       753,
   51.1345,       777,
   51.1547,       731,
   51.1749,       714,
    51.195,       770,
   51.2152,       745,
   51.2354,       733,
   51.2555,       661,
   51.2757,       662,
   51.2959,       707,
    51.316,       709,
   51.3362,       687,
   51.3564,       709,
   51.3765,       741,
   51.3967,       735,
   51.4169,       702,
    51.437,       664,
   51.4572,       673,
   51.4774,       679,
   51.4975,       739,
   51.5177,       679,
   51.5379,       689,
   51.5581,       734,
   51.5782,       663,
   51.5984,       683,
   51.6186,       691,
   51.6387,       664,
   51.6589,       668,
   51.6791,       677,
   51.6992,       677,
   51.7194,       682,
   51.7396,       670,
   51.7597,       683,
   51.7799,       661,
   51.8001,       675,
   51.8202,       653,
   51.8404,       689,
   51.8606,       695,
   51.8808,       665,
   51.9009,       662,
   51.9211,       670,
   51.9413,       681,
   51.9614,       697,
   51.9816,       729,
   52.0018,       631,
   52.0219,       648,
   52.0421,       660,
   52.0623,       707,
   52.0824,       708,
   52.1026,       635,
   52.1228,       654,
   52.1429,       650,
   52.1631,       665,
   52.1833,       678,
   52.2034,       656,
   52.2236,       646,
   52.2438,       646,
    52.264,       660,
   52.2841,       622,
   52.3043,       690,
   52.3245,       656,
   52.3446,       653,
   52.3648,       721,
    52.385,       709,
   52.4051,       672,
   52.4253,       627,
   52.4455,       644,
   52.4656,       616,
   52.4858,       694,
    52.506,       680,
   52.5261,       680,
   52.5463,       623,
   52.5665,       679,
   52.5866,       653,
   52.6068,       662,
    52.627,       656,
   52.6472,       635,
   52.6673,       646,
   52.6875,       696,
   52.7077,       646,
   52.7278,       683,
    52.748,       673,
   52.7682,       683,
   52.7883,       659,
   52.8085,       667,
   52.8287,       652,
   52.8488,       670,
    52.869,       684,
   52.8892,       630,
   52.9093,       666,
   52.9295,       627,
   52.9497,       655,
   52.9699,       651,
     52.99,       661,
   53.0102,       643,
   53.0304,       689,
   53.0505,       687,
   53.0707,       648,
   53.0909,       631,
    53.111,       647,
   53.1312,       659,
   53.1514,       630,
   53.1715,       616,
   53.1917,       713,
   53.2119,       662,
    53.232,       644,
   53.2522,       646,
   53.2724,       671,
   53.2925,       635,
   53.3127,       626,
   53.3329,       699,
   53.3531,       622,
   53.3732,       680,
   53.3934,       639,
   53.4136,       625,
   53.4337,       645,
   53.4539,       659,
   53.4741,       653,
   53.4942,       651,
   53.5144,       687,
   53.5346,       651,
   53.5547,       671,
   53.5749,       676,
   53.5951,       687,
   53.6152,       629,
   53.6354,       625,
   53.6556,       666,
   53.6757,       698,
   53.6959,       654,
   53.7161,       639,
   53.7363,       605,
   53.7564,       701,
   53.7766,       623,
   53.7968,       697,
   53.8169,       643,
   53.8371,       593,
   53.8573,       625,
   53.8774,       637,
   53.8976,       638,
   53.9178,       655,
   53.9379,       651,
   53.9581,       624,
   53.9783,       657,
   53.9984,       619,
   54.0186,       616,
   54.0388,       641,
    54.059,       645,
   54.0791,       660,
   54.0993,       642,
   54.1195,       640,
   54.1396,       634,
   54.1598,       643,
     54.18,       587,
   54.2001,       675,
   54.2203,       651,
   54.2405,       594,
   54.2606,       670,
   54.2808,       684,
    54.301,       659,
   54.3211,       651,
   54.3413,       667,
   54.3615,       594,
   54.3816,       649,
   54.4018,       689,
    54.422,       678,
   54.4422,       661,
   54.4623,       722,
   54.4825,       637,
   54.5027,       623,
   54.5228,       640,
    54.543,       613,
   54.5632,       624,
   54.5833,       681,
   54.6035,       673,
   54.6237,       670,
   54.6438,       645,
    54.664,       619,
   54.6842,       602,
   54.7043,       636,
   54.7245,       657,
   54.7447,       646,
   54.7648,       645,
    54.785,       649,
   54.8052,       639,
   54.8254,       634,
   54.8455,       660,
   54.8657,       667,
   54.8859,       669,
    54.906,       674,
   54.9262,       622,
   54.9464,       584,
   54.9665,       614,
   54.9867,       666,
   55.0069,       626,
    55.027,       653,
   55.0472,       644,
   55.0674,       581,
   55.0875,       650,
   55.1077,       645,
   55.1279,       632,
   55.1481,       622,
   55.1682,       711,
   55.1884,       626,
   55.2086,       648,
   55.2287,       644,
   55.2489,       645,
   55.2691,       641,
   55.2892,       701,
   55.3094,       649,
   55.3296,       652,
   55.3497,       619,
   55.3699,       626,
   55.3901,       656,
   55.4102,       650,
   55.4304,       621,
   55.4506,       620,
   55.4707,       649,
   55.4909,       644,
   55.5111,       708,
   55.5313,       632,
   55.5514,       645,
   55.5716,       622,
   55.5918,       611,
   55.6119,       612,
   55.6321,       640,
   55.6523,       657,
   55.6724,       632,
   55.6926,       667,
   55.7128,       669,
   55.7329,       616,
   55.7531,       640,
   55.7733,       633,
   55.7934,       594,
   55.8136,       652,
   55.8338,       614,
    55.854,       613,
   55.8741,       633,
   55.8943,       614,
   55.9145,       637,
   55.9346,       607,
   55.9548,       671,
    55.975,       647,
   55.9951,       608,
   56.0153,       659,
   56.0355,       635,
   56.0556,       607,
   56.0758,       610,
    56.096,       680,
   56.1161,       648,
   56.1363,       648,
   56.1565,       643,
   56.1766,       591,
   56.1968,       605,
    56.217,       583,
   56.2372,       615,
   56.2573,       643,
   56.2775,       643,
   56.2977,       592,
   56.3178,       643,
    56.338,       651,
   56.3582,       601,
   56.3783,       562,
   56.3985,       628,
   56.4187,       649,
   56.4388,       668,
    56.459,       606,
   56.4792,       606,
   56.4993,       653,
   56.5195,       646,
   56.5397,       580,
   56.5598,       611,
     56.58,       607,
   56.6002,       605,
   56.6204,       668,
   56.6405,       622,
   56.6607,       604,
   56.6809,       640,
    56.701,       648,
   56.7212,       662,
   56.7414,       601,
   56.7615,       622,
   56.7817,       641,
   56.8019,       630,
    56.822,       642,
   56.8422,       635,
   56.8624,       624,
   56.8825,       602,
   56.9027,       630,
   56.9229,       612,
   56.9431,       607,
   56.9632,       641,
   56.9834,       656,
   57.0036,       592,
   57.0237,       648,
   57.0439,       615,
   57.0641,       622,
   57.0842,       634,
   57.1044,       636,
   57.1246,       580,
   57.1447,       615,
   57.1649,       650,
   57.1851,       611,
   57.2052,       606,
   57.2254,       614,
   57.2456,       655,
   57.2657,       647,
   57.2859,       605,
   57.3061,       617,
   57.3263,       650,
   57.3464,       639,
   57.3666,       642,
   57.3868,       630,
   57.4069,       629,
   57.4271,       674,
   57.4473,       631,
   57.4674,       649,
   57.4876,       614,
   57.5078,       659,
   57.5279,       630,
   57.5481,       658,
   57.5683,       647,
   57.5884,       635,
   57.6086,       678,
   57.6288,       601,
   57.6489,       623,
   57.6691,       631,
   57.6893,       614,
   57.7095,       619,
   57.7296,       656,
   57.7498,       607,
     57.77,       592,
   57.7901,       594,
   57.8103,       620,
   57.8305,       651,
   57.8506,       603,
   57.8708,       603,
    57.891,       668,
   57.9111,       640,
   57.9313,       674,
   57.9515,       610,
   57.9716,       625,
   57.9918,       629,
    58.012,       599,
   58.0322,       632,
   58.0523,       608,
   58.0725,       603,
   58.0927,       632,
   58.1128,       651,
    58.133,       652,
   58.1532,       616,
   58.1733,       647,
   58.1935,       626,
   58.2137,       639,
   58.2338,       659,
    58.254,       608,
   58.2742,       601,
   58.2943,       626,
   58.3145,       595,
   58.3347,       655,
   58.3548,       615,
    58.375,       606,
   58.3952,       632,
   58.4154,       645,
   58.4355,       634,
   58.4557,       605,
   58.4759,       636,
    58.496,       634,
   58.5162,       616,
   58.5364,       644,
   58.5565,       639,
   58.5767,       609,
   58.5969,       650,
    58.617,       595,
   58.6372,       609,
   58.6574,       626,
   58.6775,       667,
   58.6977,       603,
   58.7179,       647,
    58.738,       620,
   58.7582,       624,
   58.7784,       630,
   58.7986,       629,
   58.8187,       590,
   58.8389,       609,
   58.8591,       677,
   58.8792,       583,
   58.8994,       604,
   58.9196,       616,
   58.9397,       596,
   58.9599,       618,
   58.9801,       628,
   59.0002,       626,
   59.0204,       600,
   59.0406,       586,
   59.0607,       614,
   59.0809,       617,
   59.1011,       643,
   59.1213,       637,
   59.1414,       644,
   59.1616,       656,
   59.1818,       635,
   59.2019,       621,
   59.2221,       601,
   59.2423,       630,
   59.2624,       618,
   59.2826,       591,
   59.3028,       606,
   59.3229,       618,
   59.3431,       628,
   59.3633,       581,
   59.3834,       648,
   59.4036,       633,
   59.4238,       640,
   59.4439,       624,
   59.4641,       643,
   59.4843,       649,
   59.5045,       581,
   59.5246,       656,
   59.5448,       611,
    59.565,       649,
   59.5851,       630,
   59.6053,       634,
   59.6255,       627,
   59.6456,       632,
   59.6658,       619,
    59.686,       645,
   59.7061,       595,
   59.7263,       629,
   59.7465,       624,
   59.7666,       587,
   59.7868,       650,
    59.807,       613,
   59.8271,       638,
   59.8473,       636,
   59.8675,       653,
   59.8877,       664,
   59.9078,       561,
    59.928,       663,
   59.9482,       624,
   59.9683,       602,
   59.9885,       630,
   60.0087,       614,
   60.0288,       617,
    60.049,       653,
   60.0692,       577,
   60.0893,       606,
   60.1095,       614,
   60.1297,       594,
   60.1498,       665,
     60.17,       619,
   60.1902,       586,
   60.2104,       672,
   60.2305,       579,
   60.2507,       620,
   60.2709,       628,
    60.291,       634,
   60.3112,       605,
   60.3314,       684,
   60.3515,       599,
   60.3717,       619,
   60.3919,       621,
    60.412,       657,
   60.4322,       617,
   60.4524,       631,
   60.4725,       605,
   60.4927,       644,
   60.5129,       621,
    60.533,       597,
   60.5532,       632,
   60.5734,       640,
   60.5936,       638,
   60.6137,       599,
   60.6339,       622,
   60.6541,       628,
   60.6742,       660,
   60.6944,       635,
   60.7146,       604,
   60.7347,       617,
   60.7549,       568,
   60.7751,       620,
   60.7952,       591,
   60.8154,       611,
   60.8356,       600,
   60.8557,       589,
   60.8759,       619,
   60.8961,       621,
   60.9163,       637,
   60.9364,       641,
   60.9566,       641,
   60.9768,       671,
   60.9969,       595,
   61.0171,       669,
   61.0373,       669,
   61.0574,       573,
   61.0776,       599,
   61.0978,       627,
   61.1179,       645,
   61.1381,       618,
   61.1583,       645,
   61.1784,       633,
   61.1986,       615,
   61.2188,       638,
   61.2389,       647,
   61.2591,       644,
   61.2793,       623,
   61.2995,       609,
   61.3196,       578,
   61.3398,       609,
     61.36,       635,
   61.3801,       623,
   61.4003,       610,
   61.4205,       619,
   61.4406,       645,
   61.4608,       595,
    61.481,       624,
   61.5011,       631,
   61.5213,       607,
   61.5415,       590,
   61.5616,       596,
   61.5818,       596,
    61.602,       619,
   61.6221,       639,
   61.6423,       661,
   61.6625,       611,
   61.6827,       648,
   61.7028,       609,
    61.723,       637,
   61.7432,       626,
   61.7633,       611,
   61.7835,       633,
   61.8037,       632,
   61.8238,       638,
    61.844,       593,
   61.8642,       599,
   61.8843,       630,
   61.9045,       609,
   61.9247,       620,
   61.9448,       640,
    61.965,       624,
   61.9852,       654,
   62.0054,       624,
   62.0255,       599,
   62.0457,       656,
   62.0659,       600,
    62.086,       589,
   62.1062,       624,
   62.1264,       598,
   62.1465,       624,
   62.1667,       616,
   62.1869,       614,
    62.207,       611,
   62.2272,       591,
   62.2474,       642,
   62.2675,       611,
   62.2877,       606,
   62.3079,       640,
    62.328,       619,
   62.3482,       575,
   62.3684,       643,
   62.3886,       617,
   62.4087,       619,
   62.4289,       610,
   62.4491,       614,
   62.4692,       609,
   62.4894,       617,
   62.5096,       599,
   62.5297,       647,
   62.5499,       658,
   62.5701,       628,
   62.5902,       577,
   62.6104,       609,
   62.6306,       610,
   62.6507,       628,
   62.6709,       660,
   62.6911,       625,
   62.7112,       624,
   62.7314,       596,
   62.7516,       638,
   62.7718,       605,
   62.7919,       637,
   62.8121,       653,
   62.8323,       603,
   62.8524,       664,
   62.8726,       627,
   62.8928,       655,
   62.9129,       605,
   62.9331,       597,
   62.9533,       627,
   62.9734,       629,
   62.9936,       634,
   63.0138,       625,
   63.0339,       594,
   63.0541,       574,
   63.0743,       618,
   63.0945,       603,
   63.1146,       613,
   63.1348,       611,
    63.155,       602,
   63.1751,       641,
   63.1953,       605,
   63.2155,       628,
   63.2356,       640,
   63.2558,       607,
    63.276,       619,
   63.2961,       616,
   63.3163,       607,
   63.3365,       569,
   63.3566,       676,
   63.3768,       639,
    63.397,       662,
   63.4171,       639,
   63.4373,       603,
   63.4575,       615,
   63.4777,       611,
   63.4978,       606,
    63.518,       627,
   63.5382,       603,
   63.5583,       653,
   63.5785,       629,
   63.5987,       581,
   63.6188,       576,
    63.639,       665,
   63.6592,       633,
   63.6793,       637,
   63.6995,       634,
   63.7197,       616,
   63.7398,       604,
     63.76,       638,
   63.7802,       666,
   63.8003,       656,
   63.8205,       606,
   63.8407,       628,
   63.8609,       612,
    63.881,       622,
   63.9012,       594,
   63.9214,       615,
   63.9415,       619,
   63.9617,       651,
   63.9819,       607,
    64.002,       608,
   64.0222,       637,
   64.0424,       608,
   64.0625,       579,
   64.0827,       609,
   64.1029,       636,
    64.123,       646,
   64.1432,       622,
   64.1634,       598,
   64.1836,       623,
   64.2037,       632,
   64.2239,       632,
   64.2441,       635,
   64.2642,       597,
   64.2844,       606,
   64.3046,       625,
   64.3247,       639,
   64.3449,       611,
   64.3651,       587,
   64.3852,       609,
   64.4054,       590,
   64.4256,       624,
   64.4457,       631,
   64.4659,       557,
   64.4861,       613,
   64.5062,       565,
   64.5264,       607,
   64.5466,       550,
   64.5668,       644,
   64.5869,       604,
   64.6071,       581,
   64.6273,       635,
   64.6474,       606,
   64.6676,       593,
   64.6878,       605,
   64.7079,       639,
   64.7281,       636,
   64.7483,       645,
   64.7684,       600,
   64.7886,       607,
   64.8088,       608,
   64.8289,       643,
   64.8491,       600,
   64.8693,       587,
   64.8894,       619,
   64.9096,       640,
   64.9298,       553,
     64.95,       630,
   64.9701,       626,
   64.9903,       660,
   65.0105,       636,
   65.0306,       613,
   65.0508,       664,
    65.071,       633,
   65.0911,       626,
   65.1113,       597,
   65.1315,       602,
   65.1516,       626,
   65.1718,       580,
    65.192,       637,
   65.2121,       596,
   65.2323,       627,
   65.2525,       594,
   65.2727,       614,
   65.2928,       639,
    65.313,       657,
   65.3332,       601,
   65.3533,       633,
   65.3735,       615,
   65.3937,       631,
   65.4138,       595,
    65.434,       647,
   65.4542,       617,
   65.4743,       647,
   65.4945,       605,
   65.5147,       597,
   65.5348,       590,
    65.555,       571,
   65.5752,       565,
   65.5953,       614,
   65.6155,       637,
   65.6357,       597,
   65.6559,       592,
    65.676,       585,
   65.6962,       594,
   65.7164,       609,
   65.7365,       609,
   65.7567,       594,
   65.7769,       673,
    65.797,       566,
   65.8172,       572,
   65.8374,       599,
   65.8575,       616,
   65.8777,       599,
   65.8979,       608,
    65.918,       635,
   65.9382,       597,
   65.9584,       621,
   65.9786,       614,
   65.9987,       612,
   66.0189,       594,
   66.0391,       640,
   66.0592,       613,
   66.0794,       643,
   66.0996,       672,
   66.1197,       667,
   66.1399,       643,
   66.1601,       634,
   66.1802,       639,
   66.2004,       608,
   66.2206,       642,
   66.2407,       620,
   66.2609,       597,
   66.2811,       628,
   66.3012,       637,
   66.3214,       619,
   66.3416,       612,
   66.3618,       635,
   66.3819,       646,
   66.4021,       599,
   66.4223,       588,
   66.4424,       609,
   66.4626,       622,
   66.4828,       634,
   66.5029,       626,
   66.5231,       597,
   66.5433,       613,
   66.5634,       603,
   66.5836,       589,
   66.6038,       613,
   66.6239,       587,
   66.6441,       628,
   66.6643,       618,
   66.6844,       615,
   66.7046,       603,
   66.7248,       656,
    66.745,       609,
   66.7651,       603,
   66.7853,       602,
   66.8055,       577,
   66.8256,       661,
   66.8458,       607,
    66.866,       659,
   66.8861,       636,
   66.9063,       613,
   66.9265,       597,
   66.9466,       570,
   66.9668,       603,
    66.987,       635,
   67.0071,       628,
   67.0273,       623,
   67.0475,       600,
   67.0677,       605,
   67.0878,       615,
    67.108,       634,
   67.1282,       610,
   67.1483,       609,
   67.1685,       579,
   67.1887,       610,
   67.2088,       569,
    67.229,       585,
   67.2492,       585,
   67.2693,       613,
   67.2895,       614,
   67.3097,       631,
   67.3298,       606,
     67.35,       595,
   67.3702,       620,
   67.3903,       605,
   67.4105,       622,
   67.4307,       583,
   67.4509,       575,
    67.471,       592,
   67.4912,       635,
   67.5114,       597,
   67.5315,       588,
   67.5517,       615,
   67.5719,       588,
    67.592,       579,
   67.6122,       611,
   67.6324,       601,
   67.6525,       588,
   67.6727,       611,
   67.6929,       604,
    67.713,       593,
   67.7332,       608,
   67.7534,       639,
   67.7735,       597,
   67.7937,       606,
   67.8139,       622,
   67.8341,       645,
   67.8542,       646,
   67.8744,       607,
   67.8946,       631,
   67.9147,       608,
   67.9349,       634,
   67.9551,       650,
   67.9752,       647,
   67.9954,       605,
   68.0156,       612,
   68.0357,       565,
   68.0559,       642,
   68.0761,       586,
   68.0962,       618,
   68.1164,       634,
   68.1366,       630,
   68.1568,       619,
   68.1769,       597,
   68.1971,       581,
   68.2173,       608,
   68.2374,       602,
   68.2576,       589,
   68.2778,       611,
   68.2979,       632,
   68.3181,       632,
   68.3383,       608,
   68.3584,       610,
   68.3786,       610,
   68.3988,       618,
   68.4189,       618,
   68.4391,       583,
   68.4593,       624,
   68.4794,       603,
   68.4996,       618,
   68.5198,       590,
     68.54,       588,
   68.5601,       654,
   68.5803,       615,
   68.6005,       613,
   68.6206,       621,
   68.6408,       623,
    68.661,       608,
   68.6811,       584,
   68.7013,       608,
   68.7215,       578,
   68.7416,       610,
   68.7618,       644,
    68.782,       582,
   68.8021,       617,
   68.8223,       623,
   68.8425,       625,
   68.8626,       645,
   68.8828,       622,
    68.903,       620,
   68.9232,       604,
   68.9433,       611,
   68.9635,       562,
   68.9837,       607,
   69.0038,       611,
    69.024,       593,
   69.0442,       636,
   69.0643,       631,
   69.0845,       611,
   69.1047,       644,
   69.1248,       648,
    69.145,       635,
   69.1652,       608,
   69.1853,       624,
   69.2055,       599,
   69.2257,       602,
   69.2459,       611,
    69.266,       598,
   69.2862,       589,
   69.3064,       626,
   69.3265,       581,
   69.3467,       669,
   69.3669,       574,
    69.387,       618,
   69.4072,       632,
   69.4274,       592,
   69.4475,       592,
   69.4677,       672,
   69.4879,       597,
    69.508,       651,
   69.5282,       615,
   69.5484,       558,
   69.5685,       599,
   69.5887,       626,
   69.6089,       604,
   69.6291,       634,
   69.6492,       608,
   69.6694,       625,
   69.6896,       608,
   69.7097,       586,
   69.7299,       581,
   69.7501,       614,
   69.7702,       638,
   69.7904,       615,
   69.8106,       586,
   69.8307,       584,
   69.8509,       584,
   69.8711,       622,
   69.8912,       592,
   69.9114,       602,
   69.9316,       576,
   69.9517,       610,
   69.9719,       610,
   69.9921,       641,
   70.0123,       625,
   70.0324,       609,
   70.0526,       633,
   70.0728,       556,
   70.0929,       564,
   70.1131,       648,
   70.1333,       615,
   70.1534,       633,
   70.1736,       606,
   70.1938,       594,
   70.2139,       639,
   70.2341,       609,
   70.2543,       641,
   70.2744,       602,
   70.2946,       567,
   70.3148,       622,
    70.335,       606,
   70.3551,       577,
   70.3753,       588,
   70.3955,       628,
   70.4156,       596,
   70.4358,       651,
    70.456,       594,
   70.4761,       626,
   70.4963,       586,
   70.5165,       616,
   70.5366,       630,
   70.5568,       637,
    70.577,       660,
   70.5971,       616,
   70.6173,       553,
   70.6375,       579,
   70.6576,       560,
   70.6778,       633,
    70.698,       556,
   70.7182,       592,
   70.7383,       639,
   70.7585,       606,
   70.7787,       627,
   70.7988,       627,
    70.819,       579,
   70.8392,       619,
   70.8593,       587,
   70.8795,       615,
   70.8997,       645,
   70.9198,       615,
     70.94,       643,
   70.9602,       599,
   70.9803,       623,
   71.0005,       639,
   71.0207,       637,
   71.0409,       597,
    71.061,       649,
   71.0812,       598,
   71.1014,       622,
   71.1215,       628,
   71.1417,       618,
   71.1619,       601,
    71.182,       609,
   71.2022,       625,
   71.2224,       628,
   71.2425,       619,
   71.2627,       585,
   71.2829,       631,
    71.303,       596,
   71.3232,       598,
   71.3434,       626,
   71.3635,       623,
   71.3837,       630,
   71.4039,       630,
   71.4241,       602,
   71.4442,       638,
   71.4644,       654,
   71.4846,       634,
   71.5047,       572,
   71.5249,       651,
   71.5451,       615,
   71.5652,       651,
   71.5854,       678,
   71.6056,       595,
   71.6257,       632,
   71.6459,       610,
   71.6661,       654,
   71.6862,       653,
   71.7064,       631,
   71.7266,       619,
   71.7467,       660,
   71.7669,       660,
   71.7871,       639,
   71.8073,       646,
   71.8274,       657,
   71.8476,       665,
   71.8678,       596,
   71.8879,       652,
   71.9081,       638,
   71.9283,       606,
   71.9484,       612,
   71.9686,       608,
   71.9888,       633,
   72.0089,       616,
   72.0291,       645,
   72.0493,       619,
   72.0694,       593,
   72.0896,       684,
   72.1098,       670,
     72.13,       590,
   72.1501,       607,
   72.1703,       614,
   72.1905,       642,
   72.2106,       631,
   72.2308,       612,
    72.251,       659,
   72.2711,       619,
   72.2913,       681,
   72.3115,       650,
   72.3316,       602,
   72.3518,       651,
    72.372,       638,
   72.3921,       609,
   72.4123,       642,
   72.4325,       628,
   72.4526,       689,
   72.4728,       620,
    72.493,       640,
   72.5132,       606,
   72.5333,       651,
   72.5535,       685,
   72.5737,       625,
   72.5938,       656,
    72.614,       655,
   72.6342,       679,
   72.6543,       668,
   72.6745,       638,
   72.6947,       633,
   72.7148,       690,
    72.735,       631,
   72.7552,       639,
   72.7753,       614,
   72.7955,       650,
   72.8157,       652,
   72.8358,       612,
    72.856,       619,
   72.8762,       635,
   72.8964,       657,
   72.9165,       600,
   72.9367,       645,
   72.9569,       659,
    72.977,       614,
   72.9972,       660,
   73.0174,       612,
   73.0375,       637,
   73.0577,       661,
   73.0779,       637,
    73.098,       634,
   73.1182,       626,
   73.1384,       617,
   73.1585,       641,
   73.1787,       645,
   73.1989,       646,
   73.2191,       636,
   73.2392,       654,
   73.2594,       651,
   73.2796,       633,
   73.2997,       610,
   73.3199,       643,
   73.3401,       637,
   73.3602,       657,
   73.3804,       660,
   73.4006,       649,
   73.4207,       646,
   73.4409,       655,
   73.4611,       654,
   73.4812,       649,
   73.5014,       676,
   73.5216,       642,
   73.5417,       654,
   73.5619,       707,
   73.5821,       655,
   73.6023,       675,
   73.6224,       666,
   73.6426,       685,
   73.6628,       710,
   73.6829,       647,
   73.7031,       694,
   73.7233,       693,
   73.7434,       714,
   73.7636,       732,
   73.7838,       718,
   73.8039,       788,
   73.8241,       821,
   73.8443,       859,
   73.8644,       859,
   73.8846,       896,
   73.9048,       867,
   73.9249,       854,
   73.9451,       862,
   73.9653,       932,
   73.9855,       900,
   74.0056,       922,
   74.0258,       940,
    74.046,      1033,
   74.0661,      1109,
   74.0863,      1181,
   74.1065,      1298,
   74.1266,      1599,
   74.1468,      2052,
    74.167,      2733,
   74.1871,      4408,
   74.2073,      7142,
   74.2275,     10559,
   74.2476,     12457,
   74.2678,     10244,
    74.288,      6791,
   74.3082,      4111,
   74.3283,      2932,
   74.3485,      2257,
   74.3687,      2114,
   74.3888,      2474,
    74.409,      3328,
   74.4292,      4632,
   74.4493,      6089,
   74.4695,      6456,
   74.4897,      5131,
   74.5098,      3428,
     74.53,      2284,
   74.5502,      1696,
   74.5703,      1263,
   74.5905,      1136,
   74.6107,      1021,
   74.6308,       940,
    74.651,       889,
   74.6712,       888,
   74.6914,       867,
   74.7115,       806,
   74.7317,       809,
   74.7519,       808,
    74.772,       794,
   74.7922,       696,
   74.8124,       765,
   74.8325,       761,
   74.8527,       702,
   74.8729,       703,
    74.893,       699,
   74.9132,       662,
   74.9334,       736,
   74.9535,       694,
   74.9737,       692,
   74.9939,       661,
    75.014,       695,
   75.0342,       641,
   75.0544,       701,
   75.0746,       684,
   75.0947,       638,
   75.1149,       637,
   75.1351,       661,
   75.1552,       591,
   75.1754,       634,
   75.1956,       667,
   75.2157,       652,
   75.2359,       652,
   75.2561,       630,
   75.2762,       638,
   75.2964,       617,
   75.3166,       679,
   75.3367,       667,
   75.3569,       619,
   75.3771,       629,
   75.3973,       665,
   75.4174,       682,
   75.4376,       667,
   75.4578,       672,
   75.4779,       685,
   75.4981,       671,
   75.5183,       638,
   75.5384,       621,
   75.5586,       681,
   75.5788,       670,
   75.5989,       625,
   75.6191,       626,
   75.6393,       674,
   75.6594,       615,
   75.6796,       579,
   75.6998,       671,
   75.7199,       618,
   75.7401,       642,
   75.7603,       612,
   75.7805,       617,
   75.8006,       641,
   75.8208,       617,
    75.841,       655,
   75.8611,       612,
   75.8813,       621,
   75.9015,       632,
   75.9216,       656,
   75.9418,       651,
    75.962,       606,
   75.9821,       624,
   76.0023,       610,
   76.0225,       646,
   76.0426,       667,
   76.0628,       648,
    76.083,       677,
   76.1032,       663,
   76.1233,       631,
   76.1435,       652,
   76.1637,       628,
   76.1838,       607,
    76.204,       638,
   76.2242,       609,
   76.2443,       624,
   76.2645,       605,
   76.2847,       648,
   76.3048,       597,
    76.325,       582,
   76.3452,       660,
   76.3653,       658,
   76.3855,       610,
   76.4057,       644,
   76.4258,       625,
    76.446,       648,
   76.4662,       624,
   76.4864,       617,
   76.5065,       664,
   76.5267,       610,
   76.5469,       652,
    76.567,       639,
   76.5872,       622,
   76.6074,       637,
   76.6275,       688,
   76.6477,       638,
   76.6679,       649,
    76.688,       609,
   76.7082,       615,
   76.7284,       667,
   76.7485,       631,
   76.7687,       658,
   76.7889,       655,
    76.809,       635,
   76.8292,       644,
   76.8494,       654,
   76.8696,       633,
   76.8897,       661,
   76.9099,       627,
   76.9301,       694,
   76.9502,       644,
   76.9704,       655,
   76.9906,       602,
   77.0107,       615,
   77.0309,       628,
   77.0511,       624,
   77.0712,       615,
   77.0914,       658,
   77.1116,       667,
   77.1317,       608,
   77.1519,       639,
   77.1721,       578,
   77.1923,       644,
   77.2124,       660,
   77.2326,       643,
   77.2528,       598,
   77.2729,       630,
   77.2931,       647,
   77.3133,       637,
   77.3334,       608,
   77.3536,       617,
   77.3738,       647,
   77.3939,       632,
   77.4141,       593,
   77.4343,       603,
   77.4544,       623,
   77.4746,       631,
   77.4948,       595,
   77.5149,       634,
   77.5351,       670,
   77.5553,       584,
   77.5755,       648,
   77.5956,       596,
   77.6158,       605,
    77.636,       653,
   77.6561,       633,
   77.6763,       619,
   77.6965,       647,
   77.7166,       590,
   77.7368,       615,
    77.757,       600,
   77.7771,       624,
   77.7973,       615,
   77.8175,       581,
   77.8376,       610,
   77.8578,       635,
    77.878,       628,
   77.8981,       612,
   77.9183,       639,
   77.9385,       607,
   77.9587,       629,
   77.9788,       647,
    77.999,       623,
